pressure[atm]        = 1
temperature[K]       = 200
energy step[1/cm]    = 42
maximum energy[1/cm] = 4205

Bimolecular-to-bimolecular product energy distributions:
  E, kcal/mol       P0->P1
      12.0225  7.59725e-09
      11.9025  9.72346e-09
      11.7824    1.244e-08
      11.6623  1.59093e-08
      11.5422  2.03381e-08
      11.4221  2.59895e-08
       11.302  3.31978e-08
       11.182   4.2388e-08
      11.0619     5.41e-08
      10.9418  6.90187e-08
      10.8217  8.80138e-08
      10.7016  1.12188e-07
      10.5816  1.42938e-07
      10.4615  1.82035e-07
      10.3414   2.3172e-07
      10.2213   2.9483e-07
      10.1012  3.74951e-07
      9.98114  4.76619e-07
      9.86106  6.05561e-07
      9.74098  7.69006e-07
      9.62089  9.76077e-07
      9.50081  1.23827e-06
      9.38073  1.57008e-06
      9.26065  1.98973e-06
      9.14056  2.52017e-06
      9.02048  3.19022e-06
       8.9004  4.03611e-06
      8.78032  5.10327e-06
      8.66023  6.44866e-06
      8.54015  8.14365e-06
      8.42007  1.02776e-05
      8.29999  1.29622e-05
       8.1799  1.63371e-05
      8.05982  2.05765e-05
      7.93974  2.58979e-05
      7.81966  3.25721e-05
      7.69957  4.09361e-05
      7.57949  5.14093e-05
      7.45941  6.45121e-05
      7.33933  8.08907e-05
      7.21925  0.000101346
      7.09916  0.000126868
      6.97908  0.000158683
        6.859  0.000198307
      6.73892  0.000247606
      6.61883  0.000308886
      6.49875  0.000384982
      6.37867   0.00047938
      6.25859  0.000596364
       6.1385  0.000741182
      6.01842  0.000920265
      5.89834   0.00114147
      5.77826    0.0014144
      5.65817   0.00175075
      5.53809   0.00216474
      5.41801   0.00267364
      5.29793   0.00329838
      5.17784   0.00406423
      5.05776    0.0050017
      4.93768   0.00614749
       4.8176   0.00754565
      4.69751   0.00924887
      4.57743      0.01132
      4.45735    0.0138335
      4.33727    0.0168779
      4.21718    0.0205572
       4.0971    0.0249937
      3.97702    0.0303302
      3.85694    0.0367318
      3.73685    0.0443888
      3.61677    0.0535184
      3.49669    0.0643673
      3.37661    0.0772127
      3.25652    0.0923643
      3.13644     0.110163
      3.01636     0.130979
      2.89628     0.155205
      2.77619     0.183253
      2.65611     0.215538
      2.53603      0.25246
      2.41595     0.294386
      2.29586     0.341613
      2.17578     0.394325
       2.0557     0.452543
      1.93562     0.516047
      1.81553     0.584283
      1.69545     0.656247
      1.57537     0.730322
      1.45529     0.804073
       1.3352     0.873969
      1.21512     0.935012
      1.09504     0.980226
     0.974955            1
     0.854873     0.981409
      0.73479     0.908198
     0.614708     0.763969
     0.494626     0.545045
     0.374543     0.289143
     0.254461    0.0915506
     0.134378    0.0227537
    0.0142955    0.0131936
    -0.105787   0.00793108
    -0.225869   0.00481402
    -0.345952   0.00295312
    -0.466034   0.00183022
    -0.586117   0.00114353
    -0.706199   0.00071729
    -0.826282  0.000449011
    -0.946364  0.000278841
     -1.06645  0.000171099
     -1.18653  0.000103506
     -1.30661  6.16739e-05
     -1.42669  3.61757e-05
     -1.54678  2.08645e-05
     -1.66686  1.18256e-05
     -1.78694  6.57759e-06
     -1.90702  3.58393e-06
     -2.02711  1.90828e-06
     -2.14719  9.89112e-07
     -2.26727  4.97735e-07
     -2.38735  2.41873e-07
     -2.50744  1.12888e-07
     -2.62752   5.0155e-08
      -2.7476  2.09438e-08
     -2.86768  8.10499e-09
     -2.98777  2.82774e-09
     -3.10785  8.48868e-10
     -3.22793   1.9502e-10
     -3.34801  1.99964e-11
      -3.4681 -8.76487e-12
     -3.58818 -5.81625e-12
     -3.70826 -1.59995e-12
     -3.82834 -1.24135e-13

Well-to-bimolecular product energy distributions:
  E, kcal/mol       W0->P0       W0->P1
      12.0225 -4.66627e-16 -3.03514e-19
      11.9025 -2.41442e-15 -1.55403e-18
      11.7824 -1.05934e-16 -6.74688e-20
      11.6623  1.59123e-15  1.00277e-18
      11.5422  2.36545e-15  1.47489e-18
      11.4221 -2.25887e-16 -1.39346e-19
       11.302 -5.20705e-15 -3.17782e-18
       11.182  8.73662e-15  5.27461e-18
      11.0619  6.82943e-15  4.07864e-18
      10.9418 -5.18081e-15 -3.06047e-18
      10.8217 -5.23846e-16 -3.06074e-19
      10.7016  1.49088e-14  8.61535e-18
      10.5816  6.13472e-15  3.50593e-18
      10.4615  2.94041e-15  1.66175e-18
      10.3414  6.01901e-15  3.36358e-18
      10.2213 -1.21819e-15 -6.73096e-19
      10.1012 -5.14279e-16 -2.80938e-19
      9.98114  1.12546e-14  6.07787e-18
      9.86106 -7.58717e-15 -4.05015e-18
      9.74098  2.50763e-15  1.32306e-18
      9.62089 -7.58022e-14 -3.95257e-17
      9.50081  2.21693e-15  1.14232e-18
      9.38073  4.62623e-14  2.35535e-17
      9.26065  4.09128e-15  2.05795e-18
      9.14056 -9.08176e-14  -4.5129e-17
      9.02048 -8.72679e-14 -4.28362e-17
       8.9004  -2.7001e-14 -1.30911e-17
      8.78032 -3.79799e-15 -1.81874e-18
      8.66023  1.08017e-13   5.1087e-17
      8.54015 -1.44372e-14 -6.74363e-18
      8.42007 -4.26109e-14  -1.9657e-17
      8.29999   6.1749e-14  2.81326e-17
       8.1799 -2.72112e-14 -1.22437e-17
      8.05982 -3.68269e-13  -1.6365e-16
      7.93974 -2.95498e-14 -1.29689e-17
      7.81966 -2.38004e-14 -1.03167e-17
      7.69957 -3.11037e-13 -1.33164e-16
      7.57949  -2.4579e-13 -1.03938e-16
      7.45941  9.96362e-14   4.1618e-17
      7.33933  2.96528e-14  1.22351e-17
      7.21925  2.56342e-13  1.04488e-16
      7.09916 -3.77339e-13 -1.51956e-16
      6.97908 -4.43046e-13  -1.7628e-16
        6.859 -5.79741e-13 -2.27921e-16
      6.73892 -7.68708e-13  -2.9863e-16
      6.61883 -6.92654e-13 -2.65903e-16
      6.49875 -1.04603e-12 -3.96817e-16
      6.37867 -8.55819e-13 -3.20816e-16
      6.25859 -2.32793e-12 -8.62287e-16
       6.1385 -2.12813e-12 -7.78858e-16
      6.01842 -4.64859e-14 -1.68079e-17
      5.89834 -6.94523e-13  -2.4806e-16
      5.77826  3.42081e-12  1.20673e-15
      5.65817  3.99143e-12  1.39042e-15
      5.53809 -2.65998e-12 -9.14861e-16
      5.41801 -7.56398e-12 -2.56805e-15
      5.29793  5.94093e-12  1.99069e-15
      5.17784 -1.19149e-12  -3.9397e-16
      5.05776  5.89436e-13  1.92295e-16
      4.93768 -9.43925e-12 -3.03785e-15
       4.8176  6.66292e-13  2.11511e-16
      4.69751  5.01827e-12  1.57115e-15
      4.57743 -4.48118e-12 -1.38366e-15
      4.45735  3.38719e-12  1.03148e-15
      4.33727 -7.63184e-12 -2.29234e-15
      4.21718 -1.97991e-12 -5.86668e-16
       4.0971  6.78623e-12  1.98418e-15
      3.97702  3.40458e-11  9.82626e-15
      3.85694   5.2117e-11  1.48568e-14
      3.73685  1.58547e-10  4.46766e-14
      3.61677  5.18601e-10  1.44615e-13
      3.49669   1.4764e-09  4.07972e-13
      3.37661  4.30377e-09  1.18038e-12
      3.25652  1.21019e-08  3.30027e-12
      3.13644   3.3291e-08  9.04481e-12
      3.01636  8.90335e-08  2.41519e-11
      2.89628  2.33208e-07   6.3317e-11
      2.77619  5.97175e-07  1.62718e-10
      2.65611  1.49613e-06  4.10379e-10
      2.53603  3.66589e-06  1.01573e-09
      2.41595  8.78587e-06  2.46871e-09
      2.29586  2.06342e-05  5.90628e-09
      2.17578  4.75875e-05   1.3948e-08
       2.0557   0.00010809  3.26374e-08
      1.93562  0.000242516  7.59699e-08
      1.81553  0.000538819  1.76575e-07
      1.69545   0.00118733  4.11092e-07
      1.57537   0.00259607  9.61032e-07
      1.45529   0.00563075   2.2611e-06
       1.3352    0.0121054  5.36787e-06
      1.21512    0.0257381  1.28871e-05
      1.09504    0.0538765  3.13399e-05
     0.974955     0.110275  7.73477e-05
     0.854873     0.217956  0.000193802
      0.73479       0.4073   0.00049243
     0.614708     0.691359   0.00126006
     0.494626     0.984559   0.00318667
     0.374543            1   0.00770433
     0.254461     0.482547    0.0170569
     0.134378    0.0113387    0.0340533
    0.0142955            0    0.0638974
    -0.105787            0     0.115045
    -0.225869            0     0.197161
    -0.345952            0     0.317916
    -0.466034            0     0.476941
    -0.586117            0     0.658495
    -0.706199            0     0.829844
    -0.826282            0     0.952584
    -0.946364            0            1
     -1.06645            0     0.967937
     -1.18653            0      0.87341
     -1.30661            0     0.742909
     -1.42669            0     0.601465
     -1.54678            0     0.467145
     -1.66686            0     0.349916
     -1.78694            0     0.253752
     -1.90702            0      0.17857
     -2.02711            0     0.122093
     -2.14719            0    0.0811307
     -2.26727            0    0.0523519
     -2.38735            0    0.0327577
     -2.50744            0    0.0198283
     -2.62752            0    0.0115727
      -2.7476            0   0.00648377
     -2.86768            0   0.00346594
     -2.98777            0   0.00175351
     -3.10785            0  0.000830302
     -3.22793            0   0.00036212
     -3.34801            0  0.000142006
      -3.4681            0  4.81232e-05
     -3.58818            0  1.30965e-05
     -3.70826            0  2.43524e-06
     -3.82834            0  1.49557e-07

pressure[atm]        = 1
temperature[K]       = 210
energy step[1/cm]    = 44
maximum energy[1/cm] = 4414

Bimolecular-to-bimolecular product energy distributions:
  E, kcal/mol       P0->P1
      12.6201  8.92782e-09
      12.4943  1.14101e-08
      12.3685  1.45769e-08
      12.2427  1.86153e-08
      12.1169   2.3763e-08
      11.9911  3.03217e-08
      11.8653  3.86746e-08
      11.7395  4.93077e-08
      11.6137  6.28375e-08
      11.4879  8.00451e-08
      11.3621   1.0192e-07
      11.2363  1.29715e-07
      11.1105  1.65016e-07
      10.9847  2.09826e-07
      10.8589   2.6668e-07
      10.7331  3.38777e-07
      10.6073  4.30159e-07
      10.4815   5.4592e-07
      10.3557  6.92489e-07
      10.2299  8.77963e-07
      10.1041  1.11254e-06
      9.97828  1.40905e-06
      9.85248  1.78365e-06
      9.72668   2.2566e-06
      9.60088  2.85339e-06
      9.47508  3.60598e-06
      9.34928  4.55443e-06
      9.22348  5.74896e-06
      9.09768   7.2524e-06
      8.97188  9.14334e-06
      8.84608  1.15199e-05
      8.72028  1.45047e-05
      8.59448  1.82506e-05
      8.46867  2.29478e-05
      8.34287  2.88334e-05
      8.21707  3.62021e-05
      8.09127    4.542e-05
      7.96547  5.69413e-05
      7.83967   7.1329e-05
      7.71387  8.92805e-05
      7.58807  0.000111658
      7.46227  0.000139526
      7.33647  0.000174199
      7.21067  0.000217295
      7.08487  0.000270807
      6.95907  0.000337183
      6.83327   0.00041943
      6.70746  0.000521234
      6.58166  0.000647112
      6.45586  0.000802583
      6.33006  0.000994391
      6.20426   0.00123075
      6.07846   0.00152168
      5.95266   0.00187933
      5.82686   0.00231846
      5.70106   0.00285694
      5.57526   0.00351634
      5.44946    0.0043227
      5.32366   0.00530732
      5.19786   0.00650775
      5.07206   0.00796889
      4.94626   0.00974439
      4.82045     0.011898
      4.69465    0.0145054
      4.56885    0.0176558
      4.44305    0.0214539
      4.31725    0.0260226
      4.19145    0.0315048
      4.06565    0.0380661
      3.93985    0.0458967
      3.81405    0.0552133
      3.68825    0.0662602
      3.56245    0.0793111
      3.43665     0.094669
      3.31085     0.112666
      3.18505     0.133663
      3.05924     0.158039
      2.93344     0.186189
      2.80764     0.218508
      2.68184     0.255374
      2.55604     0.297126
      2.43024      0.34403
      2.30444     0.396243
      2.17864     0.453756
      2.05284     0.516332
      1.92704     0.583417
      1.80124     0.654041
      1.67544     0.726675
      1.54964     0.799059
      1.42384     0.867972
      1.29803     0.928924
      1.17223     0.975742
      1.04643            1
     0.920632     0.990346
     0.794832     0.932073
     0.669031     0.808517
      0.54323     0.609464
      0.41743     0.355646
     0.291629     0.129461
     0.165828    0.0276586
    0.0400275    0.0138708
   -0.0857732   0.00824886
    -0.211574    0.0049515
    -0.337375   0.00300268
    -0.463175   0.00183883
    -0.588976   0.00113425
    -0.714777   0.00070123
    -0.840577   0.00043152
    -0.966378  0.000262622
     -1.09218  0.000157423
     -1.21798  9.27759e-05
     -1.34378  5.37244e-05
     -1.46958  3.05526e-05
     -1.59538  1.70472e-05
     -1.72118  9.32668e-06
     -1.84698  4.99344e-06
     -1.97278  2.61191e-06
     -2.09858  1.32919e-06
     -2.22439  6.56079e-07
     -2.35019  3.12734e-07
     -2.47599    1.431e-07
     -2.60179  6.23687e-08
     -2.72759  2.55717e-08
     -2.85339  9.73926e-09
     -2.97919  3.36535e-09
     -3.10499  1.01733e-09
     -3.23079    2.487e-10
     -3.35659  3.91816e-11
     -3.48239 -1.09822e-12
     -3.60819 -2.88943e-12
     -3.73399 -7.51765e-13
     -3.85979 -2.50318e-14

Well-to-bimolecular product energy distributions:
  E, kcal/mol       W0->P0       W0->P1
      12.6201 -1.94256e-15 -1.77093e-18
      12.4943 -1.06771e-15 -9.62949e-19
      12.3685  1.82185e-15  1.62542e-18
      12.2427 -4.42063e-17 -3.90134e-20
      12.1169  6.09058e-16  5.31674e-19
      11.9911 -1.12575e-18 -9.71997e-22
      11.8653 -4.00363e-15 -3.41897e-18
      11.7395 -3.58867e-15 -3.03088e-18
      11.6137   1.0174e-15  8.49773e-19
      11.4879  6.39533e-15  5.28228e-18
      11.3621  7.95169e-15  6.49444e-18
      11.2363  5.35033e-15  4.32077e-18
      11.1105 -7.00051e-15 -5.58961e-18
      10.9847 -7.86262e-15 -6.20673e-18
      10.8589  6.82186e-15   5.3237e-18
      10.7331 -8.44636e-15 -6.51578e-18
      10.6073  2.58123e-14  1.96825e-17
      10.4815 -2.08134e-15 -1.56863e-18
      10.3557  2.24924e-14  1.67534e-17
      10.2299 -1.14023e-14 -8.39297e-18
      10.1041  5.29291e-15  3.84976e-18
      9.97828 -9.12244e-15 -6.55575e-18
      9.85248  1.50341e-14  1.06737e-17
      9.72668  2.44815e-14  1.71695e-17
      9.60088   3.8127e-14  2.64109e-17
      9.47508  8.26069e-16   5.6513e-19
      9.34928  1.49566e-14  1.01041e-17
      9.22348 -3.35156e-14 -2.23563e-17
      9.09768 -7.83992e-15 -5.16306e-18
      8.97188  7.18905e-15  4.67382e-18
      8.84608 -2.83893e-14 -1.82192e-17
      8.72028  -2.8313e-13 -1.79355e-16
      8.59448 -6.29354e-14 -3.93515e-17
      8.46867  2.40635e-13   1.4851e-16
      8.34287  1.58159e-13   9.6342e-17
      8.21707  2.06017e-13  1.23866e-16
      8.09127 -1.03169e-13  -6.1225e-17
      7.96547  2.55297e-13  1.49541e-16
      7.83967  5.78857e-13  3.34684e-16
      7.71387  6.85939e-13  3.91481e-16
      7.58807 -2.45785e-14 -1.38471e-17
      7.46227  -1.4229e-13 -7.91359e-17
      7.33647  3.49834e-13  1.92082e-16
      7.21067  -5.1677e-13 -2.80141e-16
      7.08487 -1.73542e-13  -9.2891e-17
      6.95907 -1.20307e-12 -6.35896e-16
      6.83327  9.55668e-13  4.98834e-16
      6.70746  1.32274e-12  6.81873e-16
      6.58166 -8.15204e-14 -4.15035e-17
      6.45586  3.38511e-13  1.70208e-16
      6.33006  1.71437e-12  8.51311e-16
      6.20426   3.3419e-12   1.6388e-15
      6.07846  6.62559e-13  3.20823e-16
      5.95266  1.49812e-12  7.16208e-16
      5.82686 -3.99099e-13 -1.88348e-16
      5.70106 -2.98272e-12 -1.38932e-15
      5.57526 -1.28392e-12 -5.90132e-16
      5.44946 -5.20224e-12 -2.35903e-15
      5.32366  5.80304e-12  2.59563e-15
      5.19786 -6.04046e-12 -2.66452e-15
      5.07206  2.80057e-12  1.21811e-15
      4.94626 -3.78659e-12 -1.62371e-15
      4.82045   1.5838e-12  6.69453e-16
      4.69465  1.10346e-11   4.5971e-15
      4.56885 -4.63523e-12 -1.90321e-15
      4.44305 -1.49327e-12 -6.04305e-16
      4.31725  2.95091e-11  1.17713e-14
      4.19145  1.50781e-11  5.92996e-15
      4.06565  1.98682e-11  7.70597e-15
      3.93985  7.43511e-11  2.84528e-14
      3.81405  2.31572e-10  8.74984e-14
      3.68825  6.12161e-10   2.2861e-13
      3.56245  1.91469e-09  7.07648e-13
      3.43665  5.68429e-09  2.08254e-12
      3.31085  1.63074e-08  5.93348e-12
      3.18505  4.56189e-08  1.65187e-11
      3.05924  1.24531e-07  4.49792e-11
      2.93344  3.32156e-07  1.19975e-10
      2.80764  8.65034e-07  3.13363e-10
      2.68184  2.19987e-06  8.01836e-10
      2.55604  5.45954e-06  2.00965e-09
      2.43024  1.32216e-05  4.93581e-09
      2.30444  3.13027e-05  1.19089e-08
      2.17864  7.26144e-05  2.83124e-08
      2.05284  0.000165599  6.66098e-08
      1.92704  0.000372535  1.55793e-07
      1.80124  0.000828964  3.63775e-07
      1.67544   0.00182791  8.51119e-07
      1.54964   0.00399558  2.00082e-06
      1.42384   0.00865553  4.73936e-06
      1.29803    0.0185586   1.1344e-05
      1.17223    0.0392635  2.75073e-05
      1.04643    0.0814852  6.77129e-05
     0.920632     0.164278  0.000169528
     0.794832     0.315955  0.000431542
     0.669031     0.561456   0.00111361
      0.54323     0.862618   0.00287112
      0.41743            1   0.00717456
     0.291629     0.634719     0.016575
     0.165828    0.0615145    0.0342037
    0.0400275            0    0.0650436
   -0.0857732            0      0.11842
    -0.211574            0      0.20498
    -0.337375            0     0.333171
    -0.463175            0     0.501843
    -0.588976            0     0.691751
    -0.714777            0     0.864008
    -0.840577            0     0.975454
    -0.966378            0            1
     -1.09218            0     0.940081
     -1.21798            0     0.820614
     -1.34378            0     0.673446
     -1.46958            0     0.525086
     -1.59538            0     0.392092
     -1.72118            0     0.281877
     -1.84698            0     0.195824
     -1.97278            0     0.131708
     -2.09858            0    0.0858478
     -2.22439            0    0.0541985
     -2.35019            0    0.0330962
     -2.47599            0    0.0195021
     -2.60179            0    0.0110509
     -2.72759            0   0.00599337
     -2.85339            0   0.00309043
     -2.97919            0    0.0015017
     -3.10499            0  0.000679127
     -3.23079            0  0.000280713
     -3.35659            0  0.000103151
     -3.48239            0  3.21399e-05
     -3.60819            0  7.76298e-06
     -3.73399            0  1.15668e-06
     -3.85979            0  2.84857e-08

pressure[atm]        = 1
temperature[K]       = 220
energy step[1/cm]    = 46
maximum energy[1/cm] = 4622

Bimolecular-to-bimolecular product energy distributions:
  E, kcal/mol       P0->P1
      13.2148  1.05086e-08
      13.0833  1.34122e-08
      12.9518  1.71114e-08
      12.8202  2.18222e-08
      12.6887  2.78186e-08
      12.5572  3.54481e-08
      12.4257   4.5151e-08
      12.2942  5.74852e-08
      12.1626  7.31568e-08
      12.0311  9.30596e-08
      11.8996  1.18324e-07
      11.7681  1.50377e-07
      11.6366  1.91025e-07
       11.505  2.42546e-07
      11.3735  3.07816e-07
       11.242  3.90458e-07
      11.1105  4.95044e-07
       10.979  6.27327e-07
      10.8475  7.94552e-07
      10.7159  1.00583e-06
      10.5844  1.27261e-06
      10.4529  1.60929e-06
      10.3214  2.03392e-06
      10.1899  2.56916e-06
      10.0583  3.24342e-06
      9.92682  4.09228e-06
       9.7953  5.16028e-06
      9.66378  6.50312e-06
      9.53226   8.1904e-06
      9.40074   1.0309e-05
      9.26922  1.29674e-05
      9.13771  1.63007e-05
      9.00619  2.04769e-05
      8.87467  2.57053e-05
      8.74315  3.22457e-05
      8.61163  4.04204e-05
      8.48011  5.06292e-05
      8.34859  6.33671e-05
      8.21707  7.92466e-05
      8.08555  9.90244e-05
      7.95404  0.000123635
      7.82252  0.000154228
        7.691  0.000192223
      7.55948  0.000239361
      7.42796  0.000297783
      7.29644   0.00037011
      7.16492  0.000459556
       7.0334  0.000570047
      6.90188  0.000706379
      6.77037    0.0008744
      6.63885   0.00108123
      6.50733   0.00133554
      6.37581   0.00164783
      6.24429   0.00203085
      6.11277   0.00250001
