pressure[atm]        = 1
temperature[K]       = 200
energy step[1/cm]    = 14
maximum energy[1/cm] = 7362

Bimolecular-to-bimolecular product energy distributions:
  E, kcal/mol       P1->P2
      21.0487  5.02639e-15
      21.0087  5.48323e-15
      20.9687  5.98158e-15
      20.9287  6.52493e-15
      20.8886  7.11758e-15
      20.8486  7.76391e-15
      20.8086  8.46864e-15
      20.7686  9.23717e-15
      20.7285  1.00753e-14
      20.6885  1.09891e-14
      20.6485  1.19856e-14
      20.6084  1.30722e-14
      20.5684  1.42568e-14
      20.5284  1.55486e-14
      20.4884  1.69569e-14
      20.4483  1.84925e-14
      20.4083  2.01665e-14
      20.3683  2.19916e-14
      20.3283  2.39814e-14
      20.2882  2.61505e-14
      20.2482  2.85153e-14
      20.2082  3.10931e-14
      20.1681  3.39032e-14
      20.1281  3.69662e-14
      20.0881  4.03051e-14
      20.0481  4.39446e-14
       20.008  4.79115e-14
       19.968  5.22352e-14
       19.928  5.69478e-14
      19.8879  6.20841e-14
      19.8479  6.76817e-14
      19.8079  7.37825e-14
      19.7679  8.04312e-14
      19.7278  8.76767e-14
      19.6878  9.55726e-14
      19.6478  1.04177e-13
      19.6078  1.13553e-13
      19.5677   1.2377e-13
      19.5277  1.34903e-13
      19.4877  1.47034e-13
      19.4476  1.60251e-13
      19.4076  1.74652e-13
      19.3676  1.90342e-13
      19.3276  2.07437e-13
      19.2875  2.26061e-13
      19.2475  2.46351e-13
      19.2075  2.68454e-13
      19.1675  2.92534e-13
      19.1274  3.18765e-13
      19.0874  3.47339e-13
      19.0474  3.78463e-13
      19.0073  4.12367e-13
      18.9673  4.49295e-13
      18.9273  4.89518e-13
      18.8873  5.33326e-13
      18.8472   5.8104e-13
      18.8072  6.33006e-13
      18.7672    6.896e-13
      18.7272  7.51234e-13
      18.6871  8.18353e-13
      18.6471  8.91446e-13
      18.6071  9.71039e-13
       18.567  1.05771e-12
       18.527  1.15208e-12
       18.487  1.25485e-12
       18.447  1.36673e-12
      18.4069  1.48856e-12
      18.3669  1.62119e-12
      18.3269  1.76559e-12
      18.2868   1.9228e-12
      18.2468  2.09395e-12
      18.2068  2.28027e-12
      18.1668  2.48309e-12
      18.1267  2.70388e-12
      18.0867  2.94421e-12
      18.0467  3.20581e-12
      18.0067  3.49056e-12
      17.9666  3.80048e-12
      17.9266   4.1378e-12
      17.8866  4.50492e-12
      17.8465  4.90447e-12
      17.8065   5.3393e-12
      17.7665   5.8125e-12
      17.7265  6.32745e-12
      17.6864  6.88782e-12
      17.6464  7.49758e-12
      17.6064  8.16108e-12
      17.5664  8.88302e-12
      17.5263  9.66853e-12
      17.4863  1.05232e-11
      17.4463   1.1453e-11
      17.4062  1.24646e-11
      17.3662  1.35652e-11
      17.3262  1.47624e-11
      17.2862  1.60648e-11
      17.2461  1.74816e-11
      17.2061  1.90227e-11
      17.1661   2.0699e-11
      17.1261  2.25223e-11
       17.086  2.45054e-11
       17.046  2.66623e-11
       17.006   2.9008e-11
      16.9659  3.15592e-11
      16.9259  3.43335e-11
      16.8859  3.73505e-11
      16.8459  4.06313e-11
      16.8058  4.41989e-11
      16.7658   4.8078e-11
      16.7258  5.22959e-11
      16.6857  5.68819e-11
      16.6457  6.18679e-11
      16.6057  6.72887e-11
      16.5657   7.3182e-11
      16.5256  7.95887e-11
      16.4856  8.65533e-11
      16.4456  9.41241e-11
      16.4056  1.02354e-10
      16.3655  1.11299e-10
      16.3255  1.21021e-10
      16.2855  1.31589e-10
      16.2454  1.43074e-10
      16.2054  1.55555e-10
      16.1654   1.6912e-10
      16.1254  1.83861e-10
      16.0853  1.99879e-10
      16.0453  2.17285e-10
      16.0053  2.36199e-10
      15.9653  2.56749e-10
      15.9252  2.79077e-10
      15.8852  3.03335e-10
      15.8452  3.29689e-10
      15.8051   3.5832e-10
      15.7651  3.89422e-10
      15.7251  4.23208e-10
      15.6851  4.59908e-10
       15.645  4.99771e-10
       15.605  5.43069e-10
       15.565  5.90094e-10
       15.525  6.41167e-10
      15.4849  6.96632e-10
      15.4449  7.56866e-10
      15.4049  8.22276e-10
      15.3648  8.93302e-10
      15.3248  9.70425e-10
      15.2848  1.05416e-09
      15.2448  1.14508e-09
      15.2047  1.24379e-09
      15.1647  1.35095e-09
      15.1247  1.46729e-09
      15.0846  1.59358e-09
      15.0446  1.73066e-09
      15.0046  1.87946e-09
      14.9646  2.04097e-09
      14.9245  2.21626e-09
      14.8845  2.40651e-09
      14.8445  2.61297e-09
      14.8045  2.83703e-09
      14.7644  3.08016e-09
      14.7244  3.34399e-09
      14.6844  3.63025e-09
      14.6443  3.94085e-09
      14.6043  4.27784e-09
      14.5643  4.64343e-09
      14.5243  5.04005e-09
      14.4842   5.4703e-09
      14.4442  5.93701e-09
      14.4042  6.44325e-09
      14.3642  6.99233e-09
      14.3241  7.58786e-09
      14.2841  8.23374e-09
      14.2441  8.93418e-09
       14.204  9.69376e-09
       14.164  1.05174e-08
       14.124  1.14105e-08
       14.084  1.23789e-08
      14.0439  1.34288e-08
      14.0039  1.45671e-08
      13.9639  1.58011e-08
      13.9239  1.71389e-08
      13.8838   1.8589e-08
      13.8438  2.01608e-08
      13.8038  2.18644e-08
      13.7637  2.37109e-08
      13.7237   2.5712e-08
      13.6837  2.78806e-08
      13.6437  3.02306e-08
      13.6036  3.27771e-08
      13.5636  3.55363e-08
      13.5236  3.85258e-08
      13.4835  4.17647e-08
      13.4435  4.52735e-08
      13.4035  4.90747e-08
      13.3635  5.31923e-08
      13.3234  5.76523e-08
      13.2834  6.24831e-08
      13.2434   6.7715e-08
      13.2034  7.33813e-08
      13.1633  7.95174e-08
      13.1233   8.6162e-08
      13.0833  9.33569e-08
      13.0432  1.01147e-07
      13.0032  1.09581e-07
      12.9632  1.18712e-07
      12.9232  1.28597e-07
      12.8831  1.39298e-07
      12.8431   1.5088e-07
      12.8031  1.63416e-07
      12.7631  1.76984e-07
       12.723  1.91667e-07
       12.683  2.07556e-07
       12.643   2.2475e-07
      12.6029  2.43354e-07
      12.5629  2.63483e-07
      12.5229   2.8526e-07
      12.4829  3.08818e-07
      12.4428  3.34302e-07
      12.4028  3.61867e-07
      12.3628  3.91681e-07
      12.3228  4.23926e-07
      12.2827  4.58796e-07
      12.2427  4.96505e-07
      12.2027  5.37279e-07
      12.1626  5.81365e-07
      12.1226  6.29028e-07
      12.0826  6.80555e-07
      12.0426  7.36256e-07
      12.0025  7.96464e-07
      11.9625  8.61538e-07
      11.9225  9.31868e-07
      11.8824  1.00787e-06
      11.8424     1.09e-06
      11.8024  1.17874e-06
      11.7624  1.27462e-06
      11.7223  1.37821e-06
      11.6823   1.4901e-06
      11.6423  1.61097e-06
      11.6023  1.74152e-06
      11.5622  1.88252e-06
      11.5222  2.03478e-06
      11.4822   2.1992e-06
      11.4421  2.37673e-06
      11.4021   2.5684e-06
      11.3621  2.77532e-06
      11.3221  2.99869e-06
       11.282  3.23979e-06
       11.242  3.50001e-06
       11.202  3.78084e-06
       11.162  4.08388e-06
      11.1219  4.41087e-06
      11.0819  4.76367e-06
      11.0419  5.14427e-06
      11.0018  5.55484e-06
      10.9618  5.99769e-06
      10.9218  6.47531e-06
      10.8818  6.99041e-06
      10.8417  7.54585e-06
      10.8017  8.14475e-06
      10.7617  8.79044e-06
      10.7217  9.48652e-06
      10.6816  1.02369e-05
      10.6416  1.10456e-05
      10.6016  1.19172e-05
      10.5615  1.28564e-05
      10.5215  1.38685e-05
      10.4815  1.49589e-05
      10.4415  1.61336e-05
      10.4014  1.73991e-05
      10.3614   1.8762e-05
      10.3214    2.023e-05
      10.2813  2.18107e-05
      10.2413  2.35129e-05
      10.2013  2.53455e-05
      10.1613  2.73185e-05
      10.1212  2.94423e-05
      10.0812  3.17281e-05
      10.0412  3.41883e-05
      10.0012  3.68357e-05
      9.96113  3.96842e-05
       9.9211  4.27489e-05
      9.88107  4.60459e-05
      9.84105  4.95922e-05
      9.80102  5.34065e-05
      9.76099  5.75084e-05
      9.72096  6.19191e-05
      9.68094  6.66615e-05
      9.64091  7.17598e-05
      9.60088  7.72402e-05
      9.56085  8.31307e-05
      9.52083  8.94611e-05
       9.4808  9.62635e-05
      9.44077  0.000103572
      9.40074  0.000111424
      9.36072  0.000119859
      9.32069  0.000128918
      9.28066  0.000138647
      9.24063  0.000149094
      9.20061  0.000160311
      9.16058  0.000172353
      9.12055  0.000185278
      9.08052   0.00019915
       9.0405  0.000214036
      9.00047  0.000230009
      8.96044  0.000247145
      8.92041  0.000265527
      8.88039  0.000285242
      8.84036  0.000306385
      8.80033  0.000329055
       8.7603  0.000353359
      8.72028  0.000379411
      8.68025  0.000407334
      8.64022  0.000437256
      8.60019  0.000469316
      8.56017  0.000503661
      8.52014  0.000540449
      8.48011  0.000579847
      8.44008  0.000622033
      8.40006  0.000667197
      8.36003  0.000715542
         8.32  0.000767282
      8.27997  0.000822645
      8.23995  0.000881876
      8.19992  0.000945233
      8.15989   0.00101299
      8.11986   0.00108544
      8.07984   0.00116289
      8.03981   0.00124568
      7.99978   0.00133415
      7.95975   0.00142867
      7.91973   0.00152963
       7.8797   0.00163746
      7.83967   0.00175259
      7.79964   0.00187549
      7.75962   0.00200666
      7.71959   0.00214662
      7.67956   0.00229592
      7.63953   0.00245516
      7.59951   0.00262494
      7.55948   0.00280593
      7.51945   0.00299882
      7.47942   0.00320433
       7.4394   0.00342324
      7.39937   0.00365635
      7.35934   0.00390452
      7.31931   0.00416865
      7.27929    0.0044497
      7.23926   0.00474865
      7.19923   0.00506655
       7.1592   0.00540451
      7.11918   0.00576368
      7.07915   0.00614529
      7.03912    0.0065506
      6.99909   0.00698094
      6.95907   0.00743773
      6.91904   0.00792243
      6.87901   0.00843657
      6.83898   0.00898175
      6.79896   0.00955966
      6.75893     0.010172
       6.7189    0.0108207
      6.67887    0.0115076
      6.63885    0.0122347
      6.59882    0.0130041
      6.55879    0.0138179
      6.51876    0.0146783
      6.47874    0.0155877
      6.43871    0.0165485
      6.39868    0.0175632
      6.35865    0.0186344
      6.31863    0.0197648
       6.2786    0.0209572
      6.23857    0.0222144
      6.19854    0.0235393
      6.15852    0.0249352
      6.11849    0.0264051
      6.07846    0.0279523
      6.03843    0.0295801
      5.99841    0.0312919
      5.95838    0.0330914
      5.91835    0.0349821
      5.87832    0.0369678
       5.8383    0.0390522
      5.79827    0.0412392
      5.75824    0.0435329
      5.71821    0.0459372
      5.67819    0.0484564
      5.63816    0.0510945
      5.59813     0.053856
       5.5581    0.0567451
      5.51808    0.0597663
      5.47805     0.062924
      5.43802    0.0662228
      5.39799    0.0696671
      5.35797    0.0732617
      5.31794    0.0770113
      5.27791    0.0809203
      5.23788    0.0849937
      5.19786    0.0892361
      5.15783    0.0936523
       5.1178    0.0982469
      5.07777     0.103025
      5.03775     0.107991
      4.99772     0.113149
      4.95769     0.118505
      4.91766     0.124063
      4.87764     0.129827
      4.83761     0.135803
      4.79758     0.141994
      4.75755     0.148406
      4.71753     0.155041
       4.6775     0.161905
      4.63747     0.169002
      4.59744     0.176336
      4.55742      0.18391
      4.51739     0.191728
      4.47736     0.199793
      4.43733      0.20811
      4.39731      0.21668
      4.35728     0.225507
      4.31725     0.234594
      4.27722     0.243943
       4.2372     0.253555
      4.19717     0.263434
      4.15714     0.273579
      4.11711     0.283993
      4.07709     0.294676
      4.03706     0.305628
      3.99703      0.31685
        3.957     0.328341
      3.91698       0.3401
      3.87695     0.352125
      3.83692     0.364414
      3.79689     0.376965
      3.75687     0.389775
      3.71684     0.402838
      3.67681     0.416152
      3.63678      0.42971
      3.59676     0.443507
      3.55673     0.457535
       3.5167     0.471787
      3.47667     0.486255
      3.43665     0.500929
      3.39662     0.515798
      3.35659     0.530851
      3.31656     0.546074
      3.27654     0.561453
      3.23651     0.576973
      3.19648     0.592618
      3.15645     0.608371
      3.11643     0.624212
       3.0764     0.640123
      3.03637     0.656082
      2.99634     0.672068
      2.95632     0.688057
      2.91629     0.704023
      2.87626      0.71994
      2.83623      0.73578
      2.79621     0.751515
      2.75618     0.767114
      2.71615     0.782545
      2.67612     0.797772
       2.6361     0.812761
      2.59607     0.827478
      2.55604     0.841886
      2.51601     0.855948
      2.47599     0.869626
      2.43596     0.882881
      2.39593     0.895672
       2.3559     0.907958
      2.31588     0.919696
      2.27585     0.930842
      2.23582     0.941343
      2.19579     0.951147
      2.15577     0.960209
      2.11574     0.968482
      2.07571     0.975918
      2.03568     0.982465
      1.99566     0.988057
      1.95563     0.992645
       1.9156     0.996182
      1.87557     0.998621
      1.83555     0.999917
      1.79552            1
      1.75549     0.998809
      1.71546     0.996307
      1.67544      0.99246
      1.63541     0.987238
      1.59538     0.980619
      1.55535     0.972583
      1.51533     0.963117
       1.4753     0.952217
      1.43527     0.939882
      1.39524     0.926122
      1.35522     0.910953
      1.31519     0.894397
      1.27516     0.876485
      1.23513     0.857253
      1.19511     0.836741
      1.15508     0.814983
      1.11505     0.791954
      1.07502     0.767527
        1.035     0.741745
     0.994969     0.714673
     0.954942     0.686376
     0.914914     0.656891
     0.874887     0.626019
     0.834859     0.593695
     0.794832     0.560038
     0.754804     0.525186
     0.714777     0.489303
     0.674749     0.452574
     0.634722     0.415211
     0.594694     0.377451
     0.554667      0.33956
     0.514639     0.301832
     0.474612     0.264589
     0.434584     0.228181
     0.394557     0.192987
     0.354529      0.15941
     0.314502     0.127878
     0.274474    0.0988363
     0.234447    0.0727405
     0.194419    0.0500472
     0.154392    0.0311965
     0.114364    0.0165854
    0.0743368   0.00652372
    0.0343093   0.00114132

Well-to-bimolecular product energy distributions:
  E, kcal/mol       W1->P1       W1->P2
      21.0487   -8.197e-18 -2.12632e-13
      21.0087  -9.8925e-18 -2.55548e-13
      20.9687 -1.16216e-17 -2.98965e-13
      20.9287  1.35807e-17  3.47907e-13
      20.8886 -3.64942e-18 -9.30992e-14
      20.8486  7.18079e-17  1.82419e-12
      20.8086  2.10211e-17  5.31771e-13
      20.7686 -2.97272e-17 -7.48841e-13
      20.7285 -3.08941e-17 -7.74949e-13
      20.6885  1.22109e-17  3.05004e-13
      20.6485  3.42046e-17  8.50735e-13
      20.6084  5.67015e-17  1.40428e-12
      20.5684 -4.75721e-17 -1.17315e-12
      20.5284 -2.41041e-17 -5.91882e-13
      20.4884  4.30883e-17  1.05351e-12
      20.4483  4.56888e-17   1.1123e-12
      20.4083 -1.84226e-17 -4.46571e-13
      20.3683  3.25568e-17  7.85789e-13
      20.3283 -1.49576e-16 -3.59457e-12
      20.2882 -2.08159e-17 -4.98077e-13
      20.2482  5.73841e-17  1.36711e-12
      20.2082  5.25339e-17  1.24612e-12
      20.1681  3.34032e-17  7.88885e-13
      20.1281  6.45786e-17   1.5185e-12
      20.0881  2.42867e-17   5.6858e-13
      20.0481  2.54859e-17  5.94039e-13
       20.008 -1.86636e-17 -4.33111e-13
       19.968 -2.62909e-17 -6.07426e-13
       19.928   3.0897e-17  7.10696e-13
      19.8879 -1.54389e-16 -3.53557e-12
      19.8479 -1.04284e-16 -2.37756e-12
      19.8079   5.5574e-17   1.2614e-12
      19.7679 -1.22722e-16 -2.77312e-12
      19.7278 -8.86178e-17 -1.99353e-12
      19.6878  1.84888e-17  4.14062e-13
      19.6478 -1.31839e-16 -2.93933e-12
      19.6078 -5.95707e-17 -1.32215e-12
      19.5677   2.3148e-17   5.1145e-13
      19.5277  2.95271e-17  6.49447e-13
      19.4877  -4.6866e-17 -1.02615e-12
      19.4476  2.19207e-16  4.77786e-12
      19.4076  -1.1215e-16 -2.43332e-12
      19.3676 -7.33212e-17  -1.5836e-12
      19.3276  1.03682e-16   2.2291e-12
      19.2875  1.67917e-16  3.59358e-12
      19.2475  1.98903e-16  4.23715e-12
      19.2075 -2.32143e-16 -4.92248e-12
      19.1675 -9.56098e-17   -2.018e-12
      19.1274 -1.33494e-16 -2.80456e-12
      19.0874   3.1039e-17  6.49068e-13
      19.0474  2.92885e-16  6.09612e-12
      19.0073 -2.34031e-16 -4.84841e-12
      18.9673  2.47817e-16     5.11e-12
      18.9273 -4.33786e-16 -8.90271e-12
      18.8873  2.11475e-17  4.31976e-13
      18.8472 -5.47345e-17 -1.11278e-12
      18.8072 -7.04698e-18 -1.42591e-13
      18.7672  9.32063e-17  1.87704e-12
      18.7272 -4.54696e-17 -9.11341e-13
      18.6871 -5.97911e-16 -1.19268e-11
      18.6471 -1.06339e-16 -2.11106e-12
      18.6071 -9.29278e-17 -1.83599e-12
       18.567 -1.11535e-16 -2.19305e-12
       18.527   1.4368e-16  2.81151e-12
       18.487 -2.16908e-16 -4.22397e-12
       18.447 -1.77393e-16 -3.43777e-12
      18.4069 -7.00211e-16 -1.35039e-11
      18.3669  2.51077e-16  4.81861e-12
      18.3269  6.03685e-16  1.15293e-11
      18.2868   4.9903e-16  9.48404e-12
      18.2468   1.7363e-16  3.28365e-12
      18.2068   1.8346e-16  3.45251e-12
      18.1668 -7.45452e-16 -1.39594e-11
      18.1267  2.10595e-16  3.92413e-12
      18.0867  2.69997e-16  5.00608e-12
      18.0467  2.49307e-16  4.59949e-12
      18.0067  3.36792e-16  6.18253e-12
      17.9666 -1.77546e-17 -3.24294e-13
      17.9266 -7.87477e-16 -1.43114e-11
      17.8866 -2.30045e-16 -4.15976e-12
      17.8465  8.06928e-16  1.45176e-11
      17.8065  3.57527e-16  6.39979e-12
      17.7665 -8.25273e-16 -1.46975e-11
      17.7265 -1.22198e-15 -2.16518e-11
      17.6864 -1.32861e-15  -2.3421e-11
      17.6464  1.31032e-15  2.29801e-11
      17.6064 -9.76537e-16 -1.70383e-11
      17.5664 -1.32867e-15 -2.30626e-11
      17.5263  4.22896e-16  7.30251e-12
      17.4863 -1.26558e-15 -2.17404e-11
      17.4463  1.09479e-15  1.87085e-11
      17.4062 -6.14033e-16 -1.04382e-11
      17.3662 -1.65065e-16 -2.79127e-12
      17.3262  5.58438e-16  9.39359e-12
      17.2862 -6.81484e-16 -1.14028e-11
      17.2461    1.267e-16  2.10876e-12
      17.2061  1.14789e-15  1.90037e-11
      17.1661  -3.6131e-16 -5.94969e-12
      17.1261  1.82906e-15  2.99581e-11
       17.086 -9.32826e-16 -1.51968e-11
       17.046  1.50712e-15  2.44206e-11
       17.006 -3.41358e-15 -5.50135e-11
      16.9659 -5.14806e-16 -8.25175e-12
      16.9259  3.03801e-15  4.84317e-11
      16.8859   1.9378e-15  3.07242e-11
      16.8459 -2.45752e-15 -3.87517e-11
      16.8058  2.12197e-15  3.32775e-11
      16.7658  1.57672e-15   2.4591e-11
      16.7258 -3.40273e-15 -5.27779e-11
      16.6857  7.71349e-16   1.1898e-11
      16.6457  4.17321e-15  6.40151e-11
      16.6057  3.28927e-16  5.01758e-12
      16.5657  5.81706e-15  8.82421e-11
      16.5256 -3.39735e-15 -5.12487e-11
      16.4856 -4.46685e-15 -6.70049e-11
      16.4456 -1.75137e-15  -2.6124e-11
      16.4056  5.15359e-15  7.64398e-11
      16.3655  5.76269e-16  8.49918e-12
      16.3255  2.73117e-15  4.00531e-11
      16.2855  2.52674e-15  3.68447e-11
      16.2454  -6.4824e-15 -9.39878e-11
      16.2054  2.47025e-15  3.56115e-11
      16.1654 -4.00158e-15  -5.7357e-11
      16.1254 -6.87925e-15  -9.8038e-11
      16.0853  1.69382e-15      2.4e-11
      16.0453  1.14996e-14  1.61998e-10
      16.0053 -1.18011e-15 -1.65282e-11
      15.9653 -7.30585e-15 -1.01728e-10
      15.9252  5.26574e-15  7.28933e-11
      15.8852  6.75448e-15  9.29546e-11
      15.8452 -7.15948e-15 -9.79496e-11
      15.8051 -1.76092e-14 -2.39495e-10
      15.7651  1.20873e-14  1.63422e-10
      15.7251 -1.65655e-15 -2.22641e-11
      15.6851    4.914e-16  6.56518e-12
       15.645 -1.18762e-14 -1.57721e-10
       15.605 -2.78094e-15 -3.67113e-11
