pressure[atm]        = 1
temperature[K]       = 200
energy step[1/cm]    = 14
maximum energy[1/cm] = 7362

Bimolecular-to-bimolecular product energy distributions:
  E, kcal/mol       P1->P2
      21.0487  2.80984e-15
      21.0087  3.06543e-15
      20.9687  3.34417e-15
      20.9287  3.64819e-15
      20.8886   3.9797e-15
      20.8486  4.34129e-15
      20.8086  4.73562e-15
      20.7686  5.16565e-15
      20.7285   5.6346e-15
      20.6885  6.14601e-15
      20.6485  6.70366e-15
      20.6084  7.31174e-15
      20.5684  7.97482e-15
      20.5284  8.69785e-15
      20.4884  9.48616e-15
      20.4483  1.03457e-14
      20.4083  1.12829e-14
      20.3683  1.23047e-14
      20.3283  1.34187e-14
      20.2882  1.46333e-14
      20.2482  1.59574e-14
      20.2082  1.74009e-14
      20.1681  1.89746e-14
      20.1281  2.06901e-14
      20.0881  2.25601e-14
      20.0481  2.45986e-14
       20.008  2.68206e-14
       19.968  2.92427e-14
       19.928  3.18827e-14
      19.8879  3.47602e-14
      19.8479  3.78965e-14
      19.8079  4.13149e-14
      19.7679  4.50405e-14
      19.7278  4.91008e-14
      19.6878  5.35258e-14
      19.6478  5.83482e-14
      19.6078  6.36035e-14
      19.5677  6.93305e-14
      19.5277  7.55712e-14
      19.4877  8.23716e-14
      19.4476  8.97817e-14
      19.4076   9.7856e-14
      19.3676  1.06654e-13
      19.3276  1.16239e-13
      19.2875  1.26683e-13
      19.2475  1.38062e-13
      19.2075  1.50459e-13
      19.1675  1.63965e-13
      19.1274  1.78679e-13
      19.0874  1.94708e-13
      19.0474  2.12169e-13
      19.0073  2.31191e-13
      18.9673  2.51911e-13
      18.9273  2.74481e-13
      18.8873  2.99065e-13
      18.8472  3.25842e-13
      18.8072  3.55008e-13
      18.7672  3.86774e-13
      18.7272   4.2137e-13
      18.6871  4.59049e-13
      18.6471  5.00084e-13
      18.6071  5.44772e-13
       18.567  5.93437e-13
       18.527  6.46432e-13
       18.487  7.04139e-13
       18.447  7.66978e-13
      18.4069  8.35401e-13
      18.3669  9.09902e-13
      18.3269   9.9102e-13
      18.2868  1.07934e-12
      18.2468   1.1755e-12
      18.2068  1.28018e-12
      18.1668  1.39416e-12
      18.1267  1.51823e-12
      18.0867   1.6533e-12
      18.0467  1.80034e-12
      18.0067  1.96039e-12
      17.9666  2.13461e-12
      17.9266  2.32425e-12
      17.8866  2.53066e-12
      17.8465  2.75532e-12
      17.8065  2.99984e-12
      17.7665  3.26596e-12
      17.7265  3.55558e-12
      17.6864  3.87077e-12
      17.6464  4.21377e-12
      17.6064  4.58703e-12
      17.5664  4.99321e-12
      17.5263  5.43519e-12
      17.4863  5.91611e-12
      17.4463  6.43938e-12
      17.4062  7.00873e-12
      17.3662  7.62818e-12
      17.3262  8.30212e-12
      17.2862  9.03532e-12
      17.2461  9.83298e-12
      17.2061  1.07007e-11
      17.1661  1.16447e-11
      17.1261  1.26715e-11
       17.086  1.37884e-11
       17.046  1.50033e-11
       17.006  1.63247e-11
      16.9659  1.77619e-11
      16.9259  1.93251e-11
      16.8859  2.10251e-11
      16.8459  2.28739e-11
      16.8058  2.48845e-11
      16.7658   2.7071e-11
      16.7258  2.94485e-11
      16.6857  3.20339e-11
      16.6457   3.4845e-11
      16.6057  3.79016e-11
      16.5657  4.12249e-11
      16.5256  4.48381e-11
      16.4856  4.87663e-11
      16.4456  5.30369e-11
      16.4056  5.76795e-11
      16.3655  6.27263e-11
      16.3255  6.82123e-11
      16.2855  7.41756e-11
      16.2454  8.06574e-11
      16.2054  8.77026e-11
      16.1654  9.53598e-11
      16.1254  1.03682e-10
      16.0853  1.12726e-10
      16.0453  1.22555e-10
      16.0053  1.33236e-10
      15.9653  1.44843e-10
      15.9252  1.57455e-10
      15.8852  1.71159e-10
      15.8452  1.86049e-10
      15.8051  2.02227e-10
      15.7651  2.19804e-10
      15.7251  2.38899e-10
      15.6851  2.59643e-10
       15.645  2.82179e-10
       15.605  3.06658e-10
       15.565  3.33249e-10
       15.525  3.62131e-10
      15.4849  3.93502e-10
      15.4449  4.27574e-10
      15.4049  4.64578e-10
      15.3648  5.04764e-10
      15.3248  5.48406e-10
      15.2848  5.95797e-10
      15.2448  6.47257e-10
      15.2047  7.03135e-10
      15.1647  7.63806e-10
      15.1247  8.29679e-10
      15.0846  9.01196e-10
      15.0446  9.78838e-10
      15.0046  1.06313e-09
      14.9646  1.15462e-09
      14.9245  1.25395e-09
      14.8845  1.36176e-09
      14.8445  1.47877e-09
      14.8045  1.60578e-09
      14.7644  1.74362e-09
      14.7244  1.89321e-09
      14.6844  2.05554e-09
      14.6443   2.2317e-09
      14.6043  2.42286e-09
      14.5643  2.63027e-09
      14.5243  2.85532e-09
      14.4842  3.09948e-09
      14.4442  3.36438e-09
      14.4042  3.65175e-09
      14.3642   3.9635e-09
      14.3241  4.30167e-09
      14.2841  4.66848e-09
      14.2441  5.06634e-09
       14.204  5.49786e-09
       14.164  5.96586e-09
       14.124   6.4734e-09
       14.084  7.02381e-09
      14.0439  7.62065e-09
      14.0039  8.26784e-09
      13.9639  8.96956e-09
      13.9239  9.73039e-09
      13.8838  1.05553e-08
      13.8438  1.14495e-08
      13.8038  1.24189e-08
      13.7637  1.34698e-08
      13.7237  1.46089e-08
      13.6837  1.58435e-08
      13.6437  1.71816e-08
      13.6036  1.86319e-08
      13.5636  2.02036e-08
      13.5236  2.19068e-08
      13.4835  2.37523e-08
      13.4435  2.57521e-08
      13.4035  2.79188e-08
      13.3635  3.02664e-08
      13.3234  3.28096e-08
      13.2834  3.55648e-08
      13.2434  3.85493e-08
      13.2034  4.17821e-08
      13.1633  4.52837e-08
      13.1233  4.90762e-08
      13.0833  5.31836e-08
      13.0432  5.76316e-08
      13.0032  6.24484e-08
      12.9632  6.76641e-08
      12.9232  7.33115e-08
      12.8831   7.9426e-08
      12.8431  8.60457e-08
      12.8031  9.32121e-08
      12.7631   1.0097e-07
       12.723  1.09367e-07
       12.683  1.18456e-07
       12.643  1.28293e-07
      12.6029  1.38939e-07
      12.5629  1.50461e-07
      12.5229  1.62928e-07
      12.4829  1.76418e-07
      12.4428  1.91014e-07
      12.4028  2.06805e-07
      12.3628  2.23889e-07
      12.3228  2.42369e-07
      12.2827  2.62359e-07
      12.2427  2.83981e-07
      12.2027  3.07367e-07
      12.1626  3.32657e-07
      12.1226  3.60007e-07
      12.0826  3.89581e-07
      12.0426  4.21558e-07
      12.0025  4.56131e-07
      11.9625  4.93508e-07
      11.9225  5.33914e-07
      11.8824  5.77591e-07
      11.8424    6.248e-07
      11.8024  6.75824e-07
      11.7624  7.30966e-07
      11.7223  7.90555e-07
      11.6823  8.54945e-07
      11.6423  9.24516e-07
      11.6023  9.99681e-07
      11.5622  1.08088e-06
      11.5222   1.1686e-06
      11.4822  1.26335e-06
      11.4421  1.36568e-06
      11.4021   1.4762e-06
      11.3621  1.59554e-06
      11.3221  1.72442e-06
       11.282  1.86356e-06
       11.242  2.01379e-06
       11.202  2.17596e-06
       11.162  2.35103e-06
      11.1219  2.53998e-06
      11.0819  2.74392e-06
      11.0419  2.96401e-06
      11.0018   3.2015e-06
      10.9618  3.45776e-06
      10.9218  3.73423e-06
      10.8818   4.0325e-06
      10.8417  4.35425e-06
      10.8017   4.7013e-06
      10.7617   5.0756e-06
      10.7217  5.47926e-06
      10.6816  5.91454e-06
      10.6416  6.38388e-06
      10.6016   6.8899e-06
      10.5615   7.4354e-06
      10.5215  8.02343e-06
      10.4815  8.65723e-06
      10.4415  9.34031e-06
      10.4014  1.00764e-05
      10.3614  1.08696e-05
      10.3214  1.17242e-05
      10.2813  1.26449e-05
      10.2413  1.36368e-05
      10.2013  1.47051e-05
      10.1613  1.58557e-05
      10.1212  1.70948e-05
      10.0812   1.8429e-05
      10.0412  1.98657e-05
      10.0012  2.14123e-05
      9.96113  2.30772e-05
       9.9211  2.48693e-05
      9.88107  2.67981e-05
      9.84105  2.88738e-05
      9.80102  3.11073e-05
      9.76099  3.35104e-05
      9.72096  3.60956e-05
      9.68094  3.88766e-05
      9.64091  4.18678e-05
      9.60088  4.50847e-05
      9.56085   4.8544e-05
      9.52083  5.22636e-05
       9.4808  5.62626e-05
      9.44077  6.05615e-05
      9.40074  6.51823e-05
      9.36072  7.01484e-05
      9.32069  7.54852e-05
      9.28066  8.12196e-05
      9.24063  8.73805e-05
      9.20061  9.39989e-05
      9.16058  0.000101108
      9.12055  0.000108743
      9.08052  0.000116942
       9.0405  0.000125745
      9.00047  0.000135196
      8.96044  0.000145342
      8.92041  0.000156231
      8.88039  0.000167917
      8.84036  0.000180457
      8.80033  0.000193911
       8.7603  0.000208344
      8.72028  0.000223825
      8.68025  0.000240428
      8.64022  0.000258231
      8.60019  0.000277319
      8.56017  0.000297781
      8.52014  0.000319714
      8.48011  0.000343219
      8.44008  0.000368405
      8.40006  0.000395388
      8.36003  0.000424293
         8.32  0.000455251
      8.27997  0.000488402
      8.23995  0.000523897
      8.19992  0.000561894
      8.15989  0.000602563
      8.11986  0.000646085
      8.07984  0.000692652
      8.03981  0.000742468
      7.99978  0.000795749
      7.95975  0.000852727
      7.91973  0.000913648
       7.8797   0.00097877
      7.83967   0.00104837
      7.79964   0.00112274
      7.75962    0.0012022
      7.71959   0.00128707
      7.67956   0.00137771
      7.63953   0.00147448
      7.59951   0.00157777
      7.55948   0.00168802
      7.51945   0.00180565
      7.47942   0.00193113
       7.4394   0.00206496
      7.39937   0.00220765
      7.35934   0.00235977
      7.31931   0.00252189
      7.27929   0.00269463
      7.23926   0.00287864
      7.19923    0.0030746
       7.1592   0.00328324
      7.11918   0.00350533
      7.07915   0.00374166
      7.03912   0.00399308
      6.99909   0.00426048
      6.95907    0.0045448
      6.91904   0.00484703
      6.87901    0.0051682
      6.83898    0.0055094
      6.79896   0.00587178
      6.75893   0.00625653
       6.7189   0.00666492
      6.67887   0.00709825
      6.63885   0.00755792
      6.59882   0.00804538
      6.55879   0.00856213
      6.51876   0.00910976
      6.47874   0.00968993
      6.43871    0.0103044
      6.39868    0.0109549
      6.35865    0.0116434
      6.31863    0.0123718
       6.2786    0.0131421
      6.23857    0.0139566
      6.19854    0.0148174
      6.15852    0.0157269
      6.11849    0.0166874
      6.07846    0.0177014
      6.03843    0.0187715
      5.99841    0.0199005
      5.95838     0.021091
      5.91835     0.022346
      5.87832    0.0236684
       5.8383    0.0250614
      5.79827    0.0265281
      5.75824    0.0280718
      5.71821     0.029696
      5.67819     0.031404
      5.63816    0.0331996
      5.59813    0.0350863
       5.5581    0.0370682
      5.51808     0.039149
      5.47805    0.0413329
      5.43802    0.0436238
      5.39799    0.0460262
      5.35797    0.0485443
      5.31794    0.0511825
      5.27791    0.0539454
      5.23788    0.0568378
      5.19786    0.0598641
      5.15783    0.0630294
       5.1178    0.0663385
      5.07777    0.0697964
      5.03775    0.0734082
      4.99772     0.077179
      4.95769    0.0811141
      4.91766    0.0852189
      4.87764    0.0894985
      4.83761    0.0939585
      4.79758    0.0986044
      4.75755     0.103442
      4.71753     0.108476
       4.6775     0.113712
      4.63747     0.119157
      4.59744     0.124815
      4.55742     0.130692
      4.51739     0.136794
      4.47736     0.143127
      4.43733     0.149694
      4.39731     0.156503
      4.35728     0.163558
      4.31725     0.170865
      4.27722     0.178429
       4.2372     0.186254
      4.19717     0.194345
      4.15714     0.202708
      4.11711     0.211346
      4.07709     0.220264
      4.03706     0.229466
      3.99703     0.238956
        3.957     0.248736
      3.91698     0.258811
      3.87695     0.269183
      3.83692     0.279854
      3.79689     0.290826
      3.75687     0.302101
      3.71684     0.313679
      3.67681     0.325561
      3.63678     0.337747
      3.59676     0.350236
      3.55673     0.363026
       3.5167     0.376116
      3.47667     0.389502
      3.43665     0.403181
      3.39662     0.417149
      3.35659     0.431398
      3.31656     0.445921
      3.27654      0.46071
      3.23651     0.475754
      3.19648     0.491046
      3.15645     0.506571
      3.11643     0.522318
       3.0764     0.538273
      3.03637      0.55442
      2.99634     0.570744
      2.95632     0.587226
      2.91629     0.603844
      2.87626     0.620578
      2.83623     0.637404
      2.79621     0.654299
      2.75618     0.671237
      2.71615     0.688188
      2.67612      0.70512
       2.6361     0.722001
      2.59607       0.7388
      2.55604     0.755482
      2.51601     0.772014
      2.47599     0.788357
      2.43596     0.804473
      2.39593     0.820323
       2.3559     0.835865
      2.31588     0.851055
      2.27585     0.865847
      2.23582     0.880183
      2.19579     0.894004
      2.15577     0.907261
      2.11574     0.919901
      2.07571     0.931869
      2.03568     0.943105
      1.99566     0.953526
      1.95563      0.96307
       1.9156     0.971679
      1.87557     0.979293
      1.83555     0.985852
      1.79552     0.991262
      1.75549     0.995437
      1.71546     0.998319
      1.67544     0.999857
      1.63541            1
      1.59538     0.998705
      1.55535     0.995933
      1.51533     0.991652
       1.4753     0.985835
      1.43527     0.978466
      1.39524     0.969534
      1.35522     0.959038
      1.31519     0.946987
      1.27516     0.933397
      1.23513      0.91829
      1.19511     0.901695
      1.15508     0.883632
      1.11505     0.864039
      1.07502     0.842711
        1.035     0.819665
     0.994969      0.79495
     0.954942     0.768611
     0.914914     0.740659
     0.874887     0.710776
     0.834859     0.678812
     0.794832     0.644861
     0.754804     0.609042
     0.714777     0.571506
     0.674749     0.532437
     0.634722     0.492052
     0.594694     0.450606
     0.554667     0.408397
     0.514639     0.365761
     0.474612     0.323081
     0.434584     0.280786
     0.394557     0.239351
     0.354529     0.199296
     0.314502     0.161187
     0.274474     0.125631
     0.234447    0.0932645
     0.194419    0.0647489
     0.154392     0.040745
     0.114364    0.0218832
    0.0743368   0.00870528
    0.0343093   0.00154383

Well-to-bimolecular product energy distributions:
  E, kcal/mol       W1->P1       W1->P2
      21.0487  1.42565e-18  1.52836e-14
      21.0087 -1.67995e-17  -1.7936e-13
      20.9687   8.8561e-18  9.41637e-14
      20.9287  2.02635e-18  2.14567e-14
      20.8886  2.36025e-18  2.48891e-14
      20.8486   1.8525e-17  1.94539e-13
      20.8086  2.91871e-17  3.05234e-13
      20.7686  4.76512e-22  4.96254e-18
      20.7285 -2.32191e-17 -2.40802e-13
      20.6885 -2.74727e-18 -2.83724e-14
      20.6485  2.62089e-17  2.69538e-13
      20.6084  5.39542e-17  5.52546e-13
      20.5684 -1.51545e-17 -1.54544e-13
      20.5284  3.48671e-17  3.54071e-13
      20.4884  1.12786e-17  1.14048e-13
      20.4483 -1.55434e-17 -1.56507e-13
      20.4083  8.53127e-17  8.55371e-13
      20.3683   8.1418e-18  8.12846e-14
      20.3283  7.32452e-17  7.28133e-13
      20.2882  3.61271e-18  3.57606e-14
      20.2482 -4.96771e-17 -4.89625e-13
      20.2082 -8.07787e-18 -7.92751e-14
      20.1681  3.93566e-17  3.84579e-13
      20.1281 -2.49097e-17  -2.4236e-13
      20.0881  6.98371e-17   6.7655e-13
      20.0481   1.1581e-16  1.11706e-12
       20.008  8.41513e-18  8.08173e-14
       19.968  -1.5155e-17 -1.44913e-13
       19.928 -3.72993e-17 -3.55105e-13
      19.8879 -9.31353e-17 -8.82819e-13
      19.8479  -1.4708e-16 -1.38806e-12
      19.8079  8.55327e-17  8.03671e-13
      19.7679  -1.3131e-16 -1.22837e-12
      19.7278 -6.59327e-17  -6.1407e-13
      19.6878  9.67904e-17  8.97487e-13
      19.6478  6.16112e-17  5.68761e-13
      19.6078  1.59938e-17  1.46992e-13
      19.5677 -1.33633e-16  -1.2227e-12
      19.5277  6.87186e-17  6.25952e-13
      19.4877  1.44518e-16  1.31052e-12
      19.4476 -2.57792e-17 -2.32726e-13
      19.4076 -4.24753e-17 -3.81732e-13
      19.3676  1.87551e-17  1.67798e-13
      19.3276 -1.20199e-16 -1.07054e-12
      19.2875  5.71125e-17  5.06368e-13
      19.2475 -2.06538e-18  -1.8229e-14
      19.2075  3.20439e-17  2.81534e-13
      19.1675 -1.29136e-16 -1.12941e-12
      19.1274 -7.55759e-18 -6.57961e-14
      19.0874   2.0794e-16  1.80203e-12
      19.0474 -3.92653e-16 -3.38715e-12
      19.0073 -2.38034e-17 -2.04391e-13
      18.9673 -2.57232e-16 -2.19857e-12
      18.9273 -2.42553e-16 -2.06352e-12
      18.8873  1.73426e-17  1.46858e-13
      18.8472  2.83563e-16  2.39005e-12
      18.8072  1.14577e-16  9.61232e-13
      18.7672 -6.21415e-17 -5.18894e-13
      18.7272 -5.15802e-16 -4.28688e-12
      18.6871 -1.71362e-16 -1.41752e-12
      18.6471  3.76037e-16  3.09597e-12
      18.6071 -2.92756e-16 -2.39894e-12
       18.567  3.04154e-16  2.48055e-12
       18.527  3.46358e-16  2.81136e-12
       18.487 -1.79596e-16 -1.45084e-12
       18.447  3.46546e-16  2.78619e-12
      18.4069 -9.32618e-17 -7.46233e-13
      18.3669 -6.48062e-16 -5.16062e-12
      18.3269 -1.34185e-16 -1.06341e-12
      18.2868 -4.66686e-16 -3.68065e-12
      18.2468  5.05008e-17  3.96366e-13
      18.2068  7.08946e-16  5.53737e-12
      18.1668  2.64199e-16  2.05357e-12
      18.1267 -7.81379e-16 -6.04392e-12
      18.0867  5.72363e-16  4.40558e-12
      18.0467 -2.30358e-16 -1.76443e-12
      18.0067 -5.68976e-16 -4.33666e-12
      17.9666 -6.32059e-16 -4.79376e-12
      17.9266  1.01789e-15  7.68192e-12
      17.8866 -1.92534e-15 -1.44583e-11
      17.8465  1.57281e-16  1.17523e-12
      17.8065 -1.22961e-16 -9.14216e-13
      17.7665  1.52229e-15  1.12616e-11
      17.7265  3.05054e-15  2.24542e-11
      17.6864  5.00041e-16  3.66217e-12
      17.6464  2.00295e-15  1.45951e-11
      17.6064   7.3775e-16  5.34862e-12
      17.5664  4.98494e-16  3.59568e-12
      17.5263  1.61255e-16  1.15722e-12
      17.4863 -1.01178e-15 -7.22373e-12
      17.4463 -1.78342e-15 -1.26677e-11
      17.4062  -1.9758e-15 -1.39619e-11
      17.3662  6.25654e-16  4.39833e-12
      17.3262   1.1147e-15  7.79569e-12
      17.2862 -4.63196e-16 -3.22255e-12
      17.2461   1.9912e-15   1.3781e-11
      17.2061  1.37224e-15  9.44751e-12
      17.1661  5.40775e-16  3.70356e-12
      17.1261  3.03021e-15  2.06435e-11
       17.086 -2.54827e-16 -1.72686e-12
       17.046 -5.35125e-16 -3.60714e-12
       17.006 -2.26664e-15 -1.51977e-11
      16.9659  2.99746e-15  1.99908e-11
      16.9259  4.53656e-15   3.0094e-11
      16.8859  -8.5217e-16 -5.62274e-12
      16.8459 -3.54572e-16 -2.32695e-12
      16.8058  7.30143e-15  4.76592e-11
      16.7658  4.03029e-16  2.61652e-12
      16.7258  5.85201e-16  3.77864e-12
      16.6857  1.31781e-15  8.46295e-12
      16.6457 -4.09911e-15 -2.61811e-11
      16.6057  4.51421e-15   2.8675e-11
      16.5657  3.05908e-15  1.93254e-11
      16.5256  2.44136e-15  1.53384e-11
      16.4856  1.02008e-15   6.3736e-12
      16.4456  2.41377e-15  1.49984e-11
      16.4056  5.86019e-17  3.62118e-13
      16.3655  2.09465e-16  1.28716e-12
      16.3255 -9.78691e-15 -5.98059e-11
      16.2855 -4.61027e-15 -2.80152e-11
      16.2454 -1.27775e-15 -7.72107e-12
      16.2054 -2.10095e-15 -1.26242e-11
      16.1654  2.18786e-15  1.30724e-11
      16.1254 -7.67551e-15  -4.5602e-11
      16.0853  2.75328e-15  1.62653e-11
      16.0453 -5.73945e-16 -3.37137e-12
      16.0053  9.31966e-15  5.44321e-11
      15.9653  3.92419e-15  2.27886e-11
      15.9252   5.6198e-15  3.24482e-11
      15.8852  6.05439e-15  3.47565e-11
      15.8452 -9.52984e-16 -5.43926e-12
      15.8051  5.98587e-15  3.39673e-11
      15.7651  3.88253e-15  2.19039e-11
      15.7251  6.23605e-15  3.49768e-11
      15.6851  2.89613e-14   1.6149e-10
       15.645    1.323e-14  7.33394e-11
       15.605  9.61839e-15  5.30053e-11
