pressure[atm]        = 0.1
temperature[K]       = 200
energy step[1/cm]    = 42
maximum energy[1/cm] = 4170

Bimolecular-to-bimolecular product energy distributions:
  E, kcal/mol       P0->P1
      11.9225  8.34019e-09
      11.8024  1.06709e-08
      11.6823  1.36476e-08
      11.5622  1.74478e-08
      11.4421  2.22974e-08
      11.3221  2.84834e-08
       11.202  3.63708e-08
      11.0819  4.64229e-08
      10.9618  5.92283e-08
      10.8417  7.55337e-08
      10.7217   9.6286e-08
      10.6016  1.22686e-07
      10.4815  1.56253e-07
      10.3614  1.98914e-07
      10.2413  2.53106e-07
      10.1212   3.2191e-07
      10.0012  4.09223e-07
      9.88107  5.19966e-07
      9.76099  6.60352e-07
      9.64091  8.38222e-07
      9.52083  1.06346e-06
      9.40074  1.34852e-06
      9.28066  1.70908e-06
      9.16058  2.16486e-06
       9.0405  2.74068e-06
      8.92041  3.46768e-06
      8.80033  4.38496e-06
      8.68025  5.54155e-06
      8.56017  6.99887e-06
      8.44008  8.83384e-06
         8.32  1.11427e-05
      8.19992  1.40456e-05
      8.07984  1.76927e-05
      7.95975  2.22713e-05
      7.83967  2.80148e-05
      7.71959  3.52137e-05
      7.59951  4.42295e-05
      7.47942  5.55112e-05
      7.35934   6.9616e-05
      7.23926  8.72348e-05
      7.11918  0.000109223
      6.99909  0.000136639
      6.87901  0.000170789
      6.75893  0.000213288
      6.63885  0.000266124
      6.51876  0.000331748
      6.39868  0.000413171
       6.2786  0.000514094
      6.15852  0.000639055
      6.03843  0.000793611
      5.91835   0.00098456
      5.79827    0.0012202
      5.67819   0.00151066
       5.5581   0.00186824
      5.43802    0.0023079
      5.31794   0.00284777
      5.19786   0.00350978
      5.07777   0.00432038
      4.95769    0.0053114
      4.83761    0.0065211
      4.71753   0.00799529
      4.59744   0.00978863
      4.47736    0.0119661
      4.35728    0.0146048
       4.2372    0.0177956
      4.11711    0.0216455
      3.99703    0.0262795
      3.87695    0.0318433
      3.75687    0.0385047
      3.63678    0.0464563
       3.5167    0.0559171
      3.39662    0.0671344
      3.27654    0.0803849
      3.15645    0.0959754
      3.03637     0.114242
      2.91629     0.135545
      2.79621     0.160266
      2.67612     0.188798
      2.55604     0.221532
      2.43596      0.25884
      2.31588      0.30105
      2.19579     0.348416
      2.07571     0.401075
      1.95563     0.458995
      1.83555     0.521907
      1.71546     0.589221
      1.59538      0.65992
       1.4753     0.732421
      1.35522     0.804407
      1.23513     0.872601
      1.11505     0.932462
     0.994969     0.977763
     0.874887            1
     0.754804     0.987588
     0.634722     0.925118
     0.514639     0.794228
     0.394557     0.582059
     0.274474     0.311012
     0.154392    0.0817204
    0.0343093   0.00389198
   -0.0857732   0.00165397
    -0.205856  0.000920826
    -0.325938  0.000513745
    -0.446021  0.000287403
    -0.566103  0.000161334
    -0.686186  9.09648e-05
    -0.806268   5.1567e-05
    -0.926351   2.9419e-05
     -1.04643  1.68979e-05
     -1.16652  9.76369e-06
      -1.2866  5.65941e-06
     -1.40668  3.27607e-06
     -1.52676  1.88297e-06
     -1.64685  1.06976e-06
     -1.76693  5.98456e-07
     -1.88701  3.28578e-07
     -2.00709  1.76575e-07
     -2.12718  9.25076e-08
     -2.24726  4.71227e-08
     -2.36734  2.32419e-08
     -2.48742  1.10465e-08
     -2.60751  5.02405e-09
     -2.72759    2.164e-09
     -2.84767  8.74081e-10
     -2.96775  3.24974e-10
     -3.08784  1.08318e-10
     -3.20792  3.08031e-11
       -3.328  6.66842e-12
     -3.44808  7.24077e-13
     -3.56817 -1.63526e-13
     -3.68825 -9.38582e-14
     -3.80833 -1.20279e-14

Well-to-bimolecular product energy distributions:
  E, kcal/mol       W0->P0       W0->P1
      11.9225 -1.11423e-13 -2.72447e-18
      11.8024  1.88148e-12  4.55108e-17
      11.6823 -6.26645e-13 -1.49941e-17
      11.5622 -5.98893e-13 -1.41746e-17
      11.4421  2.29789e-12  5.37932e-17
      11.3221 -5.14845e-13 -1.19203e-17
       11.202  1.43746e-12  3.29151e-17
      11.0819  1.00713e-12   2.2806e-17
      10.9618  1.24671e-12  2.79166e-17
      10.8417  3.05497e-13  6.76411e-18
      10.7217 -8.07468e-13 -1.76769e-17
      10.6016  7.81189e-12  1.69078e-16
      10.4815 -1.67395e-12 -3.58173e-17
      10.3614   2.2366e-12  4.73068e-17
      10.2413 -9.72325e-13 -2.03282e-17
      10.1212  6.93584e-13  1.43319e-17
      10.0012 -4.81633e-12 -9.83556e-17
      9.88107  4.26359e-12  8.60386e-17
      9.76099   -5.212e-12 -1.03923e-16
      9.64091  9.05232e-13  1.78325e-17
      9.52083 -3.57107e-12  -6.9494e-17
      9.40074  3.18756e-12  6.12711e-17
      9.28066  8.98224e-12  1.70523e-16
      9.16058  1.95106e-13  3.65782e-18
       9.0405 -2.48233e-11 -4.59536e-16
      8.92041 -1.70281e-11 -3.11239e-16
      8.80033  2.04231e-11  3.68537e-16
      8.68025  1.47535e-11  2.62822e-16
      8.56017 -1.78248e-11 -3.13455e-16
      8.44008 -4.06152e-11 -7.05032e-16
         8.32  6.82405e-12  1.16929e-16
      8.19992 -3.78236e-11 -6.39728e-16
      8.07984  5.29177e-11   8.8345e-16
      7.95975 -4.08995e-11  -6.7398e-16
      7.83967  1.51638e-11  2.46652e-16
      7.71959  2.22015e-11  3.56463e-16
      7.59951  5.86254e-11  9.29137e-16
      7.47942  3.59913e-12  5.63069e-17
      7.35934  8.36062e-11  1.29118e-15
      7.23926 -3.58976e-11 -5.47286e-16
      7.11918  1.27959e-10  1.92594e-15
      6.99909 -3.46541e-11 -5.14961e-16
      6.87901 -1.93333e-10 -2.83659e-15
      6.75893  4.31419e-11  6.25008e-16
      6.63885  3.18225e-10   4.5523e-15
      6.51876 -6.40442e-13 -9.04675e-18
      6.39868  1.08048e-10  1.50709e-15
       6.2786 -7.74506e-11  -1.0667e-15
      6.15852 -5.53757e-11 -7.53013e-16
      6.03843 -1.81369e-10 -2.43484e-15
      5.91835  2.43419e-10  3.22575e-15
      5.79827   4.2416e-11  5.54769e-16
      5.67819  5.20535e-11  6.71833e-16
       5.5581 -3.88921e-10  -4.9524e-15
      5.43802 -2.18267e-10 -2.74154e-15
      5.31794  3.69117e-10  4.57222e-15
      5.19786  7.09839e-10  8.66934e-15
      5.07777  1.71709e-09  2.06726e-14
      4.95769 -4.79245e-11 -5.68663e-16
      4.83761 -1.26454e-10 -1.47859e-15
      4.71753 -7.92288e-10 -9.12716e-15
      4.59744  3.59057e-10  4.07465e-15
      4.47736 -3.02351e-10 -3.37964e-15
      4.35728  4.91242e-10  5.40846e-15
       4.2372  3.02764e-09  3.28335e-14
      4.11711 -1.31953e-09 -1.40965e-14
      3.99703 -4.90464e-09 -5.16243e-14
      3.87695  1.70901e-09  1.77289e-14
      3.75687 -1.12524e-09 -1.15104e-14
      3.63678  1.81881e-09  1.83591e-14
       3.5167 -3.85832e-09 -3.84702e-14
      3.39662  3.91837e-09  3.86402e-14
      3.27654 -3.25051e-09   -3.175e-14
      3.15645  4.12016e-09  3.99289e-14
      3.03637 -6.49246e-09 -6.25407e-14
      2.91629 -6.89496e-09 -6.61531e-14
      2.79621  2.13057e-08  2.04065e-13
      2.67612  3.79094e-08  3.63394e-13
      2.55604  1.26808e-07  1.22007e-12
      2.43596  4.03986e-07  3.91408e-12
      2.31588  1.18831e-06  1.16368e-11
      2.19579  3.50204e-06  3.48112e-11
      2.07571  1.01589e-05  1.03012e-10
      1.95563  2.84893e-05  2.96394e-10
      1.83555  7.68951e-05  8.26357e-10
      1.71546  0.000199071  2.22758e-09
      1.59538  0.000495419  5.82767e-09
       1.4753   0.00119087  1.48962e-08
      1.35522    0.0027841  3.75549e-08
      1.23513   0.00636674  9.42292e-08
      1.11505    0.0142848  2.37064e-07
     0.994969    0.0314731  6.02188e-07
     0.874887    0.0678982  1.55344e-06
     0.754804     0.142399  4.09247e-06
     0.634722     0.285856  1.10589e-05
     0.514639     0.530889   3.0623e-05
     0.394557     0.850218  8.60495e-05
     0.274474            1  0.000237764
     0.154392     0.568248  0.000611186
    0.0343093    0.0155955   0.00140916
   -0.0857732            0   0.00307966
    -0.205856            0   0.00665821
    -0.325938            0    0.0141908
    -0.446021            0    0.0296538
    -0.566103            0    0.0602308
    -0.686186            0      0.11726
    -0.806268            0     0.215209
    -0.926351            0     0.364938
     -1.04643            0     0.560075
     -1.16652            0     0.765868
      -1.2866            0     0.927565
     -1.40668            0            1
     -1.52676            0     0.973002
     -1.64685            0     0.866947
     -1.76693            0     0.717736
     -1.88701            0     0.558925
     -2.00709            0     0.413099
     -2.12718            0     0.291725
     -2.24726            0     0.197521
     -2.36734            0     0.128474
     -2.48742            0    0.0802851
     -2.60751            0    0.0481401
     -2.72759            0    0.0276183
     -2.84767            0    0.0150843
     -2.96775            0   0.00778927
     -3.08784            0   0.00376479
     -3.20792            0   0.00167853
       -3.328            0  0.000675263
     -3.44808            0  0.000236486
     -3.56817            0  6.74822e-05
     -3.68825            0    1.372e-05
     -3.80833            0  1.15499e-06

pressure[atm]        = 1
temperature[K]       = 200
energy step[1/cm]    = 42
maximum energy[1/cm] = 4170

Bimolecular-to-bimolecular product energy distributions:
  E, kcal/mol       P0->P1
      11.9225  8.35981e-09
      11.8024   1.0696e-08
      11.6823  1.36797e-08
      11.5622  1.74889e-08
      11.4421  2.23498e-08
      11.3221  2.85504e-08
       11.202  3.64563e-08
      11.0819  4.65321e-08
      10.9618  5.93676e-08
      10.8417  7.57113e-08
      10.7217  9.65124e-08
      10.6016  1.22974e-07
      10.4815  1.56621e-07
      10.3614  1.99382e-07
      10.2413  2.53701e-07
      10.1212  3.22667e-07
      10.0012  4.10185e-07
      9.88107  5.21188e-07
      9.76099  6.61905e-07
      9.64091  8.40193e-07
      9.52083  1.06596e-06
      9.40074  1.35169e-06
      9.28066  1.71309e-06
      9.16058  2.16995e-06
       9.0405  2.74713e-06
      8.92041  3.47584e-06
      8.80033  4.39527e-06
      8.68025  5.55458e-06
      8.56017  7.01533e-06
      8.44008  8.85461e-06
         8.32  1.11689e-05
      8.19992  1.40786e-05
      8.07984  1.77343e-05
      7.95975  2.23237e-05
      7.83967  2.80807e-05
      7.71959  3.52965e-05
      7.59951  4.43335e-05
      7.47942  5.56417e-05
      7.35934  6.97797e-05
      7.23926  8.74399e-05
      7.11918   0.00010948
      6.99909   0.00013696
      6.87901  0.000171191
      6.75893  0.000213789
      6.63885   0.00026675
      6.51876  0.000332528
      6.39868  0.000414143
       6.2786  0.000515303
      6.15852  0.000640558
      6.03843  0.000795477
      5.91835  0.000986876
      5.79827   0.00122307
      5.67819   0.00151421
       5.5581   0.00187263
      5.43802   0.00231333
      5.31794   0.00285447
      5.19786   0.00351804
      5.07777   0.00433054
      4.95769   0.00532389
      4.83761   0.00653644
      4.71753    0.0080141
      4.59744   0.00981166
      4.47736    0.0119943
      4.35728    0.0146392
       4.2372    0.0178374
      4.11711    0.0216964
      3.99703    0.0263413
      3.87695    0.0319182
      3.75687    0.0385953
      3.63678    0.0465656
       3.5167    0.0560486
      3.39662    0.0672922
      3.27654    0.0805738
      3.15645    0.0962009
      3.03637      0.11451
      2.91629     0.135863
      2.79621     0.160642
      2.67612     0.189241
      2.55604     0.222052
      2.43596     0.259446
      2.31588     0.301754
      2.19579     0.349229
      2.07571     0.402008
      1.95563     0.460057
      1.83555     0.523107
      1.71546     0.590562
      1.59538     0.661396
       1.4753     0.734013
      1.35522     0.806072
      1.23513     0.874251
      1.11505     0.933933
     0.994969     0.978759
     0.874887            1
     0.754804     0.985757
     0.634722     0.920374
     0.514639     0.786122
     0.394557     0.573771
     0.274474     0.313147
     0.154392     0.102391
    0.0343093    0.0265758
   -0.0857732    0.0152543
    -0.205856   0.00907116
    -0.325938    0.0054575
    -0.446021   0.00332298
    -0.566103   0.00204497
    -0.686186   0.00126763
    -0.806268  0.000787026
    -0.926351  0.000486425
     -1.04643  0.000297817
     -1.16652  0.000180084
      -1.2866  0.000107382
     -1.40668  6.30866e-05
     -1.52676  3.64611e-05
     -1.64685  2.07155e-05
     -1.76693  1.15551e-05
     -1.88701  6.31554e-06
     -2.00709  3.37505e-06
     -2.12718  1.75658e-06
     -2.24726  8.87808e-07
     -2.36734  4.33698e-07
     -2.48742  2.03631e-07
     -2.60751   9.1137e-08
     -2.72759  3.83925e-08
     -2.84767  1.50189e-08
     -2.96775  5.31409e-09
     -3.08784  1.62733e-09
     -3.20792  3.88136e-10
       -3.328  4.58033e-11
     -3.44808 -1.50037e-11
     -3.56817 -1.14088e-11
     -3.68825 -3.48606e-12
     -3.80833 -3.72849e-13

Well-to-bimolecular product energy distributions:
  E, kcal/mol       W0->P0       W0->P1
      11.9225  1.80031e-15  2.07066e-18
      11.8024  -5.4948e-16 -6.25197e-19
      11.6823  9.16169e-16  1.03116e-18
      11.5622  1.80873e-15  2.01365e-18
      11.4421  1.88927e-16  2.08038e-19
      11.3221  1.81524e-16  1.97695e-19
       11.202  2.41724e-15  2.60357e-18
      11.0819  1.61745e-15  1.72284e-18
      10.9618 -4.99842e-16 -5.26477e-19
      10.8417 -2.72057e-16 -2.83344e-19
      10.7217  6.84464e-16  7.04827e-19
      10.6016  3.13741e-15  3.19413e-18
      10.4815 -4.80653e-15 -4.83762e-18
      10.3614 -1.77231e-15  -1.7633e-18
      10.2413  9.04587e-15  8.89588e-18
      10.1212  3.85717e-15  3.74907e-18
      10.0012  3.08179e-14   2.9603e-17
      9.88107  7.80587e-15  7.40951e-18
      9.76099 -4.79389e-15 -4.49621e-18
      9.64091  3.50288e-16  3.24585e-19
      9.52083 -2.68401e-15 -2.45688e-18
      9.40074 -8.46993e-15 -7.65822e-18
      9.28066 -1.68456e-14 -1.50431e-17
      9.16058   3.8827e-14  3.42401e-17
       9.0405 -6.18443e-15 -5.38529e-18
      8.92041  3.19907e-14  2.75043e-17
      8.80033  2.75453e-14  2.33807e-17
      8.68025  1.90318e-14  1.59476e-17
      8.56017  3.93534e-14  3.25524e-17
      8.44008 -3.00521e-14 -2.45384e-17
         8.32  1.19326e-13  9.61758e-17
      8.19992  5.32361e-14  4.23535e-17
      8.07984 -8.20844e-14 -6.44603e-17
      7.95975  5.18692e-14  4.02057e-17
      7.83967 -2.27227e-13 -1.73855e-16
      7.71959  -1.1766e-13 -8.88611e-17
      7.59951  6.17151e-14  4.60083e-17
      7.47942  5.78513e-14  4.25724e-17
      7.35934  8.06341e-14  5.85756e-17
      7.23926  1.44923e-13  1.03929e-16
      7.11918 -4.10193e-13  -2.9041e-16
      6.99909 -8.73516e-14 -6.10578e-17
      6.87901  1.38949e-14  9.58957e-18
      6.75893  1.72498e-13  1.17549e-16
      6.63885  3.17195e-14  2.13439e-17
      6.51876  7.58908e-14  5.04258e-17
      6.39868 -7.37609e-14  -4.8395e-17
       6.2786 -1.75031e-13 -1.13393e-16
      6.15852 -1.75895e-13 -1.12509e-16
      6.03843 -1.15039e-12 -7.26445e-16
      5.91835  9.61751e-13  5.99502e-16
      5.79827  4.30369e-13  2.64773e-16
      5.67819  1.34577e-12  8.17017e-16
       5.5581 -2.35737e-12 -1.41199e-15
      5.43802 -6.25999e-13 -3.69854e-16
      5.31794  3.40934e-14  1.98648e-17
      5.19786  1.00459e-12  5.77119e-16
      5.07777 -2.12848e-12 -1.20537e-15
      4.95769   -2.515e-13 -1.40374e-16
      4.83761 -4.23809e-12 -2.33095e-15
      4.71753  4.45053e-12  2.41165e-15
      4.59744  7.05409e-13  3.76547e-16
      4.47736 -1.65043e-12 -8.67775e-16
      4.35728  1.71076e-12  8.85966e-16
       4.2372  3.05623e-12  1.55902e-15
      4.11711 -4.55828e-12 -2.29056e-15
      3.99703  1.12218e-12  5.55596e-16
      3.87695  1.88143e-12  9.18072e-16
      3.75687  2.90395e-11  1.39728e-14
      3.63678  6.06112e-11  2.87785e-14
       3.5167  2.05132e-10  9.62079e-14
      3.39662  5.41562e-10  2.51207e-13
      3.27654  1.71467e-09  7.87812e-13
      3.15645  5.20222e-09  2.37144e-12
      3.03637  1.51711e-08  6.87418e-12
      2.91629  4.26848e-08  1.92638e-11
      2.79621  1.16948e-07  5.26881e-11
      2.67612  3.11561e-07  1.40483e-10
      2.55604  8.08639e-07  3.65969e-10
      2.43596  2.04617e-06  9.32512e-10
      2.31588  5.05506e-06  2.32851e-09
      2.19579  1.22117e-05  5.70983e-09
      2.07571  2.89273e-05  1.37975e-08
      1.95563  6.74343e-05  3.30003e-08
      1.83555  0.000155208  7.84572e-08
      1.71546  0.000353689  1.86164e-07
      1.59538  0.000799308  4.42269e-07
       1.4753   0.00179287   1.0549e-06
      1.35522   0.00399239  2.53318e-06
      1.23513   0.00882135  6.14122e-06
      1.11505    0.0192926  1.50602e-05
     0.994969     0.041615  3.74536e-05
     0.874887    0.0879497    9.465e-05
     0.754804     0.180152   0.00024354
     0.634722      0.35063  0.000638061
     0.514639     0.623034   0.00169046
     0.394557       0.9345   0.00444885
     0.274474            1     0.011184
     0.154392     0.502732    0.0254345
    0.0343093    0.0119958    0.0509847
   -0.0857732            0    0.0945023
    -0.205856            0     0.166599
    -0.325938            0     0.276538
    -0.446021            0     0.427278
    -0.566103            0      0.60768
    -0.686186            0     0.788274
    -0.806268            0     0.929777
    -0.926351            0            1
     -1.04643            0      0.98845
     -1.16652            0     0.907751
      -1.2866            0     0.783372
     -1.40668            0     0.641774
     -1.52676            0     0.503398
     -1.64685            0     0.380251
     -1.76693            0     0.277764
     -1.88701            0     0.196754
     -2.00709            0     0.135342
     -2.12718            0    0.0904605
     -2.24726            0    0.0587126
     -2.36734            0    0.0369562
     -2.48742            0    0.0225101
     -2.60751            0    0.0132272
     -2.72759            0   0.00746682
     -2.84767            0    0.0040259
     -2.96775            0   0.00205745
     -3.08784            0  0.000986146
     -3.20792            0  0.000436702
       -3.328            0   0.00017471
     -3.44808            0  6.09117e-05
     -3.56817            0  1.73185e-05
     -3.68825            0  3.51075e-06
     -3.80833            0  2.94843e-07

pressure[atm]        = 2
temperature[K]       = 200
energy step[1/cm]    = 42
maximum energy[1/cm] = 4170

Bimolecular-to-bimolecular product energy distributions:
  E, kcal/mol       P0->P1
      11.9225  8.38192e-09
      11.8024  1.07243e-08
      11.6823  1.37158e-08
      11.5622  1.75351e-08
      11.4421  2.24089e-08
      11.3221  2.86259e-08
       11.202  3.65527e-08
      11.0819  4.66551e-08
      10.9618  5.95245e-08
      10.8417  7.59114e-08
      10.7217  9.67675e-08
      10.6016  1.23299e-07
      10.4815  1.57035e-07
      10.3614  1.99909e-07
      10.2413  2.54372e-07
      10.1212   3.2352e-07
      10.0012   4.1127e-07
      9.88107  5.22566e-07
      9.76099  6.63655e-07
      9.64091  8.42414e-07
      9.52083  1.06878e-06
      9.40074  1.35526e-06
      9.28066  1.71762e-06
      9.16058  2.17569e-06
       9.0405  2.75439e-06
      8.92041  3.48502e-06
      8.80033  4.40689e-06
      8.68025  5.56926e-06
      8.56017  7.03387e-06
      8.44008  8.87802e-06
         8.32  1.11984e-05
      8.19992  1.41158e-05
      8.07984  1.77812e-05
      7.95975  2.23827e-05
      7.83967  2.81549e-05
      7.71959  3.53898e-05
      7.59951  4.44507e-05
      7.47942  5.57888e-05
      7.35934  6.99642e-05
      7.23926  8.76711e-05
      7.11918  0.000109769
      6.99909  0.000137322
      6.87901  0.000171643
      6.75893  0.000214354
      6.63885  0.000267455
      6.51876  0.000333407
      6.39868  0.000415238
       6.2786  0.000516666
      6.15852  0.000642251
      6.03843  0.000797581
      5.91835  0.000989485
      5.79827   0.00122631
      5.67819   0.00151821
       5.5581   0.00187758
      5.43802   0.00231945
      5.31794   0.00286202
      5.19786   0.00352734
