pressure[atm]        = 1
temperature[K]       = 200
energy step[1/cm]    = 42
maximum energy[1/cm] = 4170

Bimolecular-to-bimolecular product energy distributions:
  E, kcal/mol       P0->P1
      11.9225  8.37264e-09
      11.8024    1.071e-08
      11.6823  1.36947e-08
      11.5622  1.75042e-08
      11.4421  2.23645e-08
      11.3221  2.85629e-08
       11.202  3.64642e-08
      11.0819  4.65319e-08
      10.9618  5.93544e-08
      10.8417  7.56777e-08
      10.7217  9.64483e-08
      10.6016  1.22865e-07
      10.4815  1.56447e-07
      10.3614  1.99118e-07
      10.2413  2.53309e-07
      10.1212  3.22096e-07
      10.0012  4.09368e-07
      9.88107  5.20034e-07
      9.76099  6.60291e-07
      9.64091  8.37956e-07
      9.52083  1.06288e-06
      9.40074  1.34748e-06
      9.28066  1.70738e-06
      9.16058  2.16222e-06
       9.0405  2.73671e-06
      8.92041  3.46187e-06
      8.80033  4.37661e-06
      8.68025  5.52973e-06
      8.56017  6.98236e-06
      8.44008  8.81101e-06
         8.32  1.11114e-05
      8.19992   1.4003e-05
      8.07984  1.76351e-05
      7.95975  2.21939e-05
      7.83967  2.79114e-05
      7.71959  3.50761e-05
      7.59951  4.40471e-05
      7.47942  5.52705e-05
      7.35934  6.92994e-05
      7.23926  8.68199e-05
      7.11918  0.000108681
      6.99909  0.000135933
      6.87901  0.000169872
      6.75893    0.0002121
      6.63885   0.00026459
      6.51876  0.000329771
      6.39868  0.000410629
       6.2786  0.000510832
      6.15852  0.000634876
      6.03843  0.000788269
      5.91835  0.000977743
      5.79827   0.00121152
      5.67819   0.00149961
       5.5581   0.00185421
      5.43802   0.00229012
      5.31794   0.00282527
      5.19786   0.00348135
      5.07777   0.00428451
      4.95769   0.00526623
      4.83761   0.00646433
      4.71753   0.00792407
      4.59744   0.00969945
      4.47736    0.0118547
      4.35728    0.0144659
       4.2372    0.0176228
      4.11711    0.0214311
      3.99703    0.0260143
      3.87695     0.031516
      3.75687    0.0381022
      3.63678     0.045963
       3.5167    0.0553148
      3.39662    0.0664022
      3.27654    0.0794988
      3.15645    0.0949083
      3.03637     0.112963
      2.91629     0.134021
      2.79621     0.158462
      2.67612     0.186674
      2.55604     0.219049
      2.43596      0.25596
      2.31588     0.297738
      2.19579     0.344644
      2.07571     0.396828
      1.95563     0.454276
      1.83555     0.516749
      1.71546     0.583695
      1.59538     0.654149
       1.4753     0.726597
      1.35522     0.798809
      1.23513     0.867609
      1.11505     0.928562
     0.994969     0.975526
     0.874887            1
     0.754804     0.990228
     0.634722      0.93036
     0.514639     0.801571
     0.394557     0.591933
     0.274474     0.328123
     0.154392     0.110411
    0.0343093    0.0308049
   -0.0857732    0.0181702
    -0.205856    0.0110687
    -0.325938   0.00681572
    -0.446021   0.00424086
    -0.566103   0.00266041
    -0.686186   0.00167548
    -0.806268   0.00105289
    -0.926351   0.00065627
     -1.04643  0.000404017
     -1.16652  0.000245113
      -1.2866  0.000146432
     -1.40668  8.61115e-05
     -1.52676  4.97889e-05
     -1.64685    2.829e-05
     -1.76693  1.57782e-05
     -1.88701  8.62142e-06
     -2.00709  4.60566e-06
     -2.12718  2.39592e-06
     -2.24726  1.21022e-06
     -2.36734  5.90746e-07
     -2.48742    2.771e-07
     -2.60751   1.2386e-07
     -2.72759  5.20826e-08
     -2.84767  2.03205e-08
     -2.96775  7.15922e-09
     -3.08784  2.17533e-09
     -3.20792   5.0929e-10
       -3.328  5.42418e-11
     -3.44808 -2.33843e-11
     -3.56817 -1.64031e-11
     -3.68825  -4.9276e-12
     -3.80833 -5.23261e-13

Well-to-bimolecular product energy distributions:
  E, kcal/mol       W0->P0       W0->P1
      11.9225  6.76055e-16  1.05094e-18
      11.8024  -6.1603e-16  -9.4733e-19
      11.6823  2.11428e-15  3.21622e-18
      11.5622  2.01682e-15  3.03466e-18
      11.4421 -7.95457e-16 -1.18386e-18
      11.3221 -2.95134e-16 -4.34426e-19
       11.202  1.58505e-15  2.30743e-18
      11.0819  -1.7713e-15 -2.54999e-18
      10.9618  1.33914e-15  1.90637e-18
      10.8417 -5.67173e-15 -7.98368e-18
      10.7217  4.42091e-15  6.15287e-18
      10.6016  1.12402e-14  1.54665e-17
      10.4815  4.01867e-15  5.46658e-18
      10.3614 -5.87076e-15 -7.89432e-18
      10.2413 -4.12121e-15 -5.47769e-18
      10.1212  2.92084e-16  3.83704e-19
      10.0012 -2.41867e-16  -3.1401e-19
      9.88107 -1.54103e-15 -1.97703e-18
      9.76099 -6.61189e-15 -8.38144e-18
      9.64091 -1.78117e-14 -2.23071e-17
      9.52083  8.16714e-15  1.01042e-17
      9.40074  3.04309e-15  3.71875e-18
      9.28066 -2.22868e-15 -2.68986e-18
      9.16058 -7.55308e-16 -9.00242e-19
       9.0405  2.85959e-14  3.36548e-17
      8.92041  1.72302e-15  2.00218e-18
      8.80033 -2.44335e-14 -2.80304e-17
      8.68025   1.8203e-14  2.06155e-17
      8.56017 -1.82907e-14 -2.04487e-17
      8.44008 -1.66813e-14 -1.84092e-17
         8.32  1.52699e-14  1.66342e-17
      8.19992  -2.5573e-15 -2.74979e-18
      8.07984 -6.69743e-14 -7.10843e-17
      7.95975  7.41542e-14  7.76871e-17
      7.83967   5.0303e-14  5.20183e-17
      7.71959 -4.07783e-14 -4.16243e-17
      7.59951  4.55459e-14  4.58911e-17
      7.47942  4.93273e-15   4.9061e-18
      7.35934 -2.27811e-14  -2.2367e-17
      7.23926  2.00263e-13  1.94104e-16
      7.11918 -7.89599e-14  -7.5555e-17
      6.99909  1.59383e-13  1.50573e-16
      6.87901 -6.26824e-13 -5.84685e-16
      6.75893 -6.50841e-14  -5.9944e-17
      6.63885 -2.94431e-13 -2.67772e-16
      6.51876 -5.65722e-13 -5.08043e-16
      6.39868 -9.75384e-13 -8.64936e-16
       6.2786 -1.45479e-13  -1.2738e-16
      6.15852  6.29657e-13  5.44342e-16
      6.03843  1.06532e-12  9.09228e-16
      5.91835  9.14097e-13  7.70113e-16
      5.79827 -1.42264e-14 -1.18294e-17
      5.67819 -6.50341e-13 -5.33626e-16
       5.5581 -8.84707e-13 -7.16207e-16
      5.43802  2.11012e-13  1.68499e-16
      5.31794  1.07729e-12   8.4836e-16
      5.19786 -2.03256e-12 -1.57817e-15
      5.07777  1.42198e-12  1.08837e-15
      4.95769  1.24905e-13  9.42244e-17
      4.83761 -3.24189e-13 -2.40988e-16
      4.71753  -6.9627e-12 -5.09935e-15
      4.59744 -1.55857e-12 -1.12444e-15
      4.47736 -2.42244e-12 -1.72146e-15
      4.35728 -4.13699e-12 -2.89565e-15
       4.2372  3.36043e-12  2.31682e-15
      4.11711  1.33784e-11  9.08614e-15
      3.99703  6.94062e-13   4.6444e-16
      3.87695  2.14398e-11  1.41398e-14
      3.75687  4.67696e-11  3.04152e-14
      3.63678  1.52615e-10  9.79369e-14
       3.5167  4.35433e-10  2.76015e-13
      3.39662  1.33284e-09  8.35599e-13
      3.27654  3.95624e-09  2.45674e-12
      3.15645  1.13467e-08   6.9908e-12
      3.03637  3.13063e-08  1.91721e-11
      2.91629  8.36213e-08  5.10058e-11
      2.79621  2.17105e-07  1.32198e-10
      2.67612  5.49005e-07  3.34574e-10
      2.55604  1.35403e-06  8.28233e-10
      2.43596  3.26064e-06   2.0084e-09
      2.31588  7.68748e-06  4.78598e-09
      2.19579  1.77923e-05  1.12438e-08
      2.07571  4.05561e-05  2.61446e-08
      1.95563  9.13545e-05  6.04229e-08
      1.83555  0.000203889  1.39299e-07
      1.71546  0.000451773  3.21387e-07
      1.59538  0.000994699  7.43872e-07
       1.4753   0.00217678  1.73105e-06
      1.35522   0.00473396  4.05967e-06
      1.23513    0.0102233  9.61929e-06
      1.11505    0.0218681   2.3072e-05
     0.994969    0.0461693  5.61605e-05
     0.874887    0.0955876  0.000139034
     0.754804     0.192028  0.000350855
     0.634722     0.367093  0.000902865
     0.514639      0.64184   0.00235372
     0.394557     0.948751   0.00610456
     0.274474            1    0.0151157
     0.154392     0.492648    0.0336866
    0.0343093    0.0114267    0.0656395
   -0.0857732            0     0.117777
    -0.205856            0      0.20074
    -0.325938            0     0.321914
    -0.446021            0     0.480519
    -0.566103            0     0.660857
    -0.686186            0     0.830761
    -0.806268            0     0.952647
    -0.926351            0            1
     -1.04643            0     0.968702
     -1.16652            0      0.87525
      -1.2866            0     0.745662
     -1.40668            0     0.604762
     -1.52676            0     0.470659
     -1.64685            0     0.353359
     -1.76693            0     0.256897
     -1.88701            0     0.181299
     -2.00709            0     0.124349
     -2.12718            0    0.0829213
     -2.24726            0     0.053721
     -2.36734            0     0.033765
     -2.48742            0    0.0205423
     -2.60751            0    0.0120594
     -2.72759            0    0.0068024
     -2.84767            0   0.00366539
     -2.96775            0   0.00187226
     -3.08784            0  0.000897011
     -3.20792            0  0.000397096
       -3.328            0   0.00015882
     -3.44808            0  5.53594e-05
     -3.56817            0  1.57369e-05
     -3.68825            0  3.18967e-06
     -3.80833            0  2.67846e-07

pressure[atm]        = 1
temperature[K]       = 210
energy step[1/cm]    = 44
maximum energy[1/cm] = 4379

Bimolecular-to-bimolecular product energy distributions:
  E, kcal/mol       P0->P1
        12.52  9.89722e-09
      12.3942  1.26421e-08
      12.2684   1.6142e-08
      12.1426  2.06026e-08
      12.0168   2.6285e-08
       11.891  3.35208e-08
      11.7652  4.27306e-08
      11.6394  5.44476e-08
      11.5136  6.93474e-08
      11.3878  8.82858e-08
       11.262  1.12346e-07
      11.1362  1.42899e-07
      11.0104  1.81677e-07
      10.8846  2.30871e-07
      10.7588  2.93246e-07
       10.633  3.72292e-07
      10.5072  4.72415e-07
      10.3814  5.99165e-07
      10.2556  7.59537e-07
      10.1298  9.62338e-07
       10.004  1.21865e-06
      9.87821  1.54241e-06
      9.75241  1.95112e-06
      9.62661  2.46678e-06
      9.50081  3.11696e-06
      9.37501  3.93626e-06
      9.24921  4.96799e-06
      9.12341   6.2664e-06
      8.99761  7.89929e-06
      8.87181   9.9514e-06
      8.74601  1.25285e-05
      8.62021  1.57624e-05
      8.49441  1.98175e-05
      8.36861  2.48982e-05
      8.24281   3.1259e-05
        8.117  3.92157e-05
       7.9912  4.91605e-05
       7.8654  6.15793e-05
       7.7396   7.7074e-05
       7.6138  9.63889e-05
        7.488  0.000120444
       7.3622  0.000150373
       7.2364  0.000187575
       7.1106   0.00023377
       6.9848  0.000291074
        6.859  0.000362084
       6.7332  0.000449984
       6.6074  0.000558675
       6.4816  0.000692925
      6.35579   0.00085856
      6.22999   0.00106268
      6.10419   0.00131394
      5.97839   0.00162283
      5.85259   0.00200211
      5.72679   0.00246723
      5.60099   0.00303684
      5.47519   0.00373346
      5.34939   0.00458417
      5.22359   0.00562148
      5.09779   0.00688429
      4.97199   0.00841905
      4.84619    0.0102811
      4.72039     0.012536
      4.59458    0.0152613
      4.46878    0.0185483
      4.34298     0.022504
      4.21718     0.027253
      4.09138    0.0329403
      3.96558    0.0397328
      3.83978    0.0478218
      3.71398    0.0574243
      3.58818    0.0687837
      3.46238    0.0821715
      3.33658    0.0978866
      3.21078     0.116254
      3.08498     0.137625
      2.95918     0.162364
      2.83337     0.190848
      2.70757     0.223449
      2.58177     0.260515
      2.45597     0.302351
      2.33017     0.349187
      2.20437     0.401138
      2.07857     0.458156
      1.95277     0.519973
      1.82697      0.58602
      1.70117     0.655341
      1.57537     0.726471
      1.44957     0.797297
      1.32377      0.86487
      1.19797     0.925154
      1.07217     0.972675
     0.946364            1
     0.820564     0.996977
     0.694763     0.949795
     0.568962     0.840859
     0.443162     0.654049
     0.317361     0.398303
      0.19156     0.153089
    0.0657595    0.0365519
   -0.0600412    0.0190477
    -0.185842    0.0114676
    -0.311643   0.00697635
    -0.437443   0.00428698
    -0.563244   0.00265424
    -0.689045   0.00164758
    -0.814845   0.00101821
    -0.940646  0.000622344
     -1.06645  0.000374574
     -1.19225  0.000221575
     -1.31805  0.000128749
     -1.44385  7.34731e-05
     -1.56965  4.11348e-05
     -1.69545  2.25846e-05
     -1.82125  1.21388e-05
     -1.94705  6.37533e-06
     -2.07285  3.26039e-06
     -2.19865  1.61754e-06
     -2.32445  7.75739e-07
     -2.45025  3.57331e-07
     -2.57606  1.57044e-07
     -2.70186  6.50282e-08
     -2.82766  2.50456e-08
     -2.95346  8.78076e-09
     -3.07926  2.70363e-09
     -3.20506  6.79806e-10
     -3.33086  1.12682e-10
     -3.45666 -1.62441e-12
     -3.58246 -8.43125e-12
     -3.70826 -2.56831e-12
     -3.83406 -1.71949e-13

Well-to-bimolecular product energy distributions:
  E, kcal/mol       W0->P0       W0->P1
        12.52  6.25558e-17  1.30584e-19
      12.3942  3.41017e-16  7.04027e-19
      12.2684 -4.76233e-16 -9.72299e-19
      12.1426  1.64532e-15  3.32181e-18
      12.0168  2.09007e-16  4.17258e-19
       11.891  3.93729e-17  7.77212e-20
      11.7652 -1.72827e-15  -3.3731e-18
      11.6394 -9.03192e-16 -1.74281e-18
      11.5136 -1.08408e-16 -2.06802e-19
      11.3878  3.41123e-16   6.4329e-19
       11.262 -3.23594e-15 -6.03213e-18
      11.1362 -3.16998e-15 -5.84078e-18
      11.0104 -3.53785e-15 -6.44272e-18
      10.8846  3.61811e-15  6.51173e-18
      10.7588  5.75389e-15  1.02336e-17
       10.633  9.98169e-15  1.75426e-17
      10.5072 -5.23003e-15 -9.08205e-18
      10.3814  7.33682e-15  1.25876e-17
      10.2556  4.11034e-16  6.96674e-19
      10.1298 -1.62604e-16 -2.72245e-19
       10.004   7.7538e-15  1.28227e-17
      9.87821  2.07808e-14  3.39404e-17
      9.75241  3.15336e-15  5.08592e-18
      9.62661 -1.29658e-14 -2.06482e-17
      9.50081  3.14736e-15  4.94843e-18
      9.37501 -2.16114e-14 -3.35419e-17
      9.24921   3.0593e-15  4.68661e-18
      9.12341  2.30413e-14  3.48356e-17
      8.99761  9.37722e-15  1.39902e-17
      8.87181  3.39754e-14  5.00152e-17
      8.74601   1.2378e-14   1.7978e-17
      8.62021 -1.72749e-14 -2.47535e-17
      8.49441  -2.0875e-14 -2.95091e-17
      8.36861  3.75502e-14  5.23645e-17
      8.24281   -4.675e-14 -6.43121e-17
        8.117  1.47241e-13  1.99811e-16
       7.9912  -1.8816e-14 -2.51882e-17
       7.8654  1.00095e-13  1.32178e-16
       7.7396  7.48963e-14  9.75649e-17
       7.6138  2.58488e-13  3.32175e-16
        7.488  -1.1181e-13 -1.41745e-16
       7.3622    5.386e-14  6.73609e-17
       7.2364  2.51465e-13   3.1028e-16
       7.1106  1.64863e-13  2.00705e-16
       6.9848 -3.20174e-13 -3.84598e-16
        6.859  4.94345e-13  5.85954e-16
       6.7332  2.61343e-13  3.05689e-16
       6.6074 -1.00603e-12 -1.16127e-15
       6.4816  -2.0437e-13 -2.32805e-16
      6.35579  3.34631e-13  3.76172e-16
      6.22999   1.1912e-12  1.32138e-15
      6.10419  2.10725e-12  2.30645e-15
      5.97839  1.57704e-12  1.70296e-15
      5.85259 -5.69504e-13 -6.06632e-16
      5.72679  5.56445e-13  5.84575e-16
      5.60099  2.29227e-12  2.37456e-15
      5.47519  2.89878e-12  2.96029e-15
      5.34939  1.42251e-12  1.43177e-15
      5.22359 -1.92558e-12 -1.90973e-15
      5.09779 -1.77714e-13 -1.73631e-16
      4.97199 -4.93261e-12 -4.74667e-15
      4.84619 -6.30513e-13 -5.97484e-16
      4.72039  1.15008e-12  1.07299e-15
      4.59458  6.81465e-13  6.25857e-16
      4.46878  1.70388e-12  1.54024e-15
      4.34298 -3.68826e-12 -3.28153e-15
      4.21718  6.83039e-13  5.98176e-16
      4.09138  1.87294e-11  1.61468e-14
      3.96558  6.15075e-12  5.22117e-15
      3.83978  7.00844e-11  5.86011e-14
      3.71398  1.90502e-10  1.56999e-13
      3.58818  5.59671e-10  4.55029e-13
      3.46238   1.6935e-09  1.35997e-12
      3.33658  5.22787e-09    4.153e-12
      3.21078  1.53826e-08  1.21092e-11
      3.08498  4.35618e-08   3.4047e-11
      2.95918  1.18885e-07  9.24521e-11
      2.83337  3.14735e-07  2.44115e-10
      2.70757  8.09443e-07  6.27869e-10
      2.58177  2.02519e-06  1.57582e-09
      2.45597  4.93442e-06  3.86499e-09
      2.33017  1.17391e-05  9.29293e-09
      2.20437  2.73545e-05  2.19864e-08
      2.07857  6.26501e-05  5.14032e-08
      1.95277  0.000141592   1.1934e-07
      1.82697   0.00031671  2.76263e-07
      1.70117  0.000702755  6.40088e-07
      1.57537    0.0015483  1.48838e-06
      1.44957   0.00338805  3.48248e-06
      1.32377   0.00736218  8.22254e-06
      1.19797    0.0158662  1.96462e-05
      1.07217    0.0338065  4.76178e-05
     0.946364    0.0708719  0.000117431
     0.820564      0.14485  0.000295355
     0.694763     0.284341  0.000759712
     0.568962     0.519366   0.00199303
     0.443162     0.827458   0.00526414
     0.317361            1    0.0135317
      0.19156     0.654679    0.0317802
    0.0657595    0.0634673    0.0646634
   -0.0600412            0     0.117981
    -0.185842            0     0.203675
    -0.311643            0     0.330245
    -0.437443            0     0.496761
    -0.563244            0     0.684925
    -0.689045            0     0.857252
    -0.814845            0     0.971252
    -0.940646            0            1
     -1.06645            0     0.944382
     -1.19225            0     0.828089
     -1.31805            0     0.682521
     -1.44385            0     0.534318
     -1.56965            0     0.400607
     -1.69545            0     0.289192
     -1.82125            0     0.201765
     -1.94705            0     0.136328
     -2.07285            0    0.0892945
     -2.19865            0    0.0566817
     -2.32445            0    0.0348211
     -2.45025            0    0.0206584
     -2.57606            0    0.0117966
     -2.70186            0   0.00645528
     -2.82766            0   0.00336394
     -2.95346            0   0.00165547
     -3.07926            0  0.000760477
     -3.20506            0    0.0003207
     -3.33086            0  0.000121045
     -3.45666            0  3.92215e-05
     -3.58246            0  1.00835e-05
     -3.70826            0   1.7254e-06
     -3.83406            0  8.49456e-08

pressure[atm]        = 1
temperature[K]       = 220
energy step[1/cm]    = 46
maximum energy[1/cm] = 4587

Bimolecular-to-bimolecular product energy distributions:
  E, kcal/mol       P0->P1
      13.1147  1.16953e-08
      12.9832  1.49186e-08
      12.8517  1.90228e-08
      12.7202  2.42463e-08
      12.5886  3.08914e-08
      12.4571  3.93412e-08
      12.3256  5.00811e-08
      12.1941  6.37252e-08
      12.0626  8.10506e-08
      11.9311   1.0304e-07
      11.7995  1.30936e-07
       11.668  1.66306e-07
      11.5365  2.11132e-07
       11.405  2.67912e-07
      11.2735  3.39796e-07
      11.1419  4.30755e-07
      11.0104  5.45789e-07
      10.8789   6.9119e-07
      10.7474  8.74872e-07
      10.6159  1.10678e-06
      10.4843  1.39941e-06
      10.3528  1.76845e-06
      10.2213  2.23356e-06
      10.0898   2.8194e-06
      9.95827  3.55685e-06
      9.82675  4.48457e-06
      9.69523   5.6509e-06
      9.56371  7.11623e-06
      9.43219  8.95597e-06
      9.30067  1.12642e-05
      9.16916  1.41581e-05
      9.03764  1.77836e-05
      8.90612  2.23223e-05
       8.7746  2.79997e-05
      8.64308  3.50955e-05
      8.51156  4.39567e-05
      8.38004  5.50131e-05
      8.24852  6.87962e-05
        8.117  8.59632e-05
      7.98549  0.000107325
      7.85397  0.000133881
      7.72245  0.000166863
      7.59093  0.000207784
      7.45941  0.000258504
      7.32789  0.000321303
      7.19637  0.000398972
      7.06485  0.000494926
      6.93333  0.000613334
      6.80182  0.000759283
       6.6703  0.000938963
      6.53878   0.00115991
      6.40726   0.00143126
      6.27574    0.0017641
      6.14422   0.00217184
       6.0127   0.00267068
      5.88118   0.00328012
      5.74966   0.00402364
      5.61815   0.00492943
      5.48663   0.00603121
      5.35511   0.00736925
