Temperature = 1985K
THERMAL DISTRIBUTIONS:
  E, kcal/mol           W1
      122.298    0.0662577
      122.198    0.0677946
      122.098    0.0693683
      121.998    0.0709775
      121.898    0.0726248
      121.798    0.0743091
      121.698    0.0760316
      121.598    0.0777946
      121.498    0.0795975
      121.398    0.0814438
      121.298    0.0833326
      121.198    0.0852652
      121.098    0.0872422
      120.998    0.0892638
      120.898     0.091333
      120.798    0.0934486
      120.698    0.0956124
      120.598    0.0978282
      120.498     0.100095
      120.398     0.102416
      120.298     0.104788
      120.198     0.107216
      120.098     0.109699
      119.998     0.112238
      119.898     0.114838
      119.798     0.117497
      119.698     0.120218
      119.598     0.123003
      119.498     0.125851
      119.398     0.128764
      119.298     0.131745
      119.198     0.134794
      119.098     0.137914
      118.998     0.141107
      118.898     0.144375
      118.798     0.147716
      118.698     0.151135
      118.598     0.154631
      118.498     0.158205
      118.398     0.161864
      118.298     0.165607
      118.198      0.16944
      118.098     0.173361
      117.998      0.17737
      117.898     0.181472
      117.798     0.185666
      117.698     0.189959
      117.598      0.19435
      117.498      0.19884
      117.398     0.203439
      117.298     0.208141
      117.198     0.212954
      117.098     0.217873
      116.998     0.222907
      116.898     0.228056
      116.798     0.233323
      116.698     0.238717
      116.598     0.244232
      116.498     0.249874
      116.398     0.255645
      116.298     0.261548
      116.198     0.267585
      116.098     0.273761
      115.998     0.280082
      115.898     0.286551
      115.798     0.293168
      115.698     0.299939
      115.598      0.30686
      115.498     0.313942
      115.398     0.321183
      115.298     0.328588
      115.198     0.336169
      115.098     0.343925
      114.998     0.351869
      114.899     0.359987
      114.799     0.368289
      114.699     0.376782
      114.599     0.385468
      114.499     0.394361
      114.399     0.403458
      114.299     0.412761
      114.199     0.422284
      114.099     0.432015
      113.999     0.441978
      113.899     0.452159
      113.799     0.462577
      113.699     0.473237
      113.599     0.484146
      113.499     0.495313
      113.399     0.506728
      113.299       0.5184
      113.199     0.530337
      113.099     0.542547
      112.999     0.555033
      112.899     0.567813
      112.799     0.580894
      112.699     0.594279
      112.599     0.607961
      112.499     0.621962
      112.399     0.636273
      112.299     0.650919
      112.199     0.665895
      112.099     0.681215
      111.999     0.696897
      111.899     0.712936
      111.799     0.729353
      111.699     0.746129
      111.599     0.763286
      111.499      0.78084
      111.399     0.798794
      111.299     0.817185
      111.199     0.835993
      111.099      0.85522
      110.999     0.874889
      110.899     0.894984
      110.799     0.915561
      110.699     0.936586
      110.599     0.958108
      110.499     0.980136
      110.399      1.00267
      110.299      1.02572
      110.199      1.04929
      110.099      1.07338
      109.999      1.09802
      109.899      1.12323
      109.799      1.14901
      109.699       1.1754
      109.599      1.20242
      109.499      1.23003
      109.399      1.25827
      109.299      1.28716
      109.199      1.31669
      109.099      1.34692
      108.999      1.37784
      108.899      1.40947
      108.799      1.44183
      108.699       1.4749
      108.599      1.50876
      108.499      1.54335
      108.399      1.57873
      108.299      1.61494
      108.199      1.65198
      108.099      1.68992
      107.999      1.72869
      107.899      1.76832
      107.799      1.80885
      107.699      1.85027
      107.599      1.89269
      107.499      1.93603
      107.399      1.98042
      107.299      2.02584
      107.199      2.07227
      107.099      2.11976
      106.999      2.16831
      106.899      2.21795
      106.799      2.26874
      106.699       2.3207
      106.599      2.37384
      106.499      2.42824
      106.399      2.48386
      106.299      2.54073
      106.199      2.59886
      106.099      2.65835
      105.999      2.71917
      105.899      2.78148
      105.799      2.84518
      105.699      2.91032
      105.599      2.97691
      105.499      3.04496
      105.399      3.11462
      105.299       3.1858
      105.199      3.25861
      105.099      3.33316
      104.999      3.40942
      104.899      3.48744
      104.799      3.56716
      104.699      3.64865
      104.599      3.73202
      104.499      3.81719
      104.399      3.90444
      104.299      3.99363
      104.199      4.08498
      104.099      4.17835
      103.999      4.27378
      103.899      4.37141
      103.799      4.47121
      103.699      4.57329
      103.599      4.67778
      103.499      4.78467
      103.399      4.89393
      103.299      5.00568
      103.199      5.11992
      103.099      5.23674
      102.999      5.35614
      102.899      5.47839
      102.799       5.6034
      102.699      5.73146
      102.599      5.86225
      102.499      5.99598
      102.399      6.13267
      102.299      6.27237
      102.199       6.4154
      102.099      6.56155
      101.999      6.71117
      101.899      6.86431
      101.799      7.02079
      101.699      7.18089
      101.599       7.3445
      101.499      7.51173
      101.399      7.68286
      101.299      7.85778
      101.199      8.03695
      101.099      8.22002
      100.999      8.40734
      100.899      8.59879
      100.799      8.79447
      100.699      8.99467
      100.599      9.19934
      100.499      9.40884
      100.399      9.62321
      100.299      9.84226
      100.199      10.0662
      100.099      10.2952
      99.9989      10.5292
      99.8989      10.7686
      99.7989      11.0134
      99.6989      11.2641
      99.5989      11.5204
      99.4989      11.7828
      99.3989      12.0506
      99.2989      12.3245
      99.1989      12.6044
      99.0989      12.8905
      98.9989      13.1835
      98.8989      13.4832
      98.7989      13.7898
      98.6989      14.1033
      98.5989      14.4237
       98.499      14.7514
       98.399      15.0864
       98.299      15.4288
       98.199      15.7795
       98.099      16.1379
       97.999      16.5047
       97.899      16.8793
       97.799      17.2625
       97.699      17.6541
       97.599      18.0544
       97.499       18.464
       97.399       18.883
       97.299      19.3118
       97.199      19.7501
       97.099      20.1979
       96.999      20.6556
       96.899      21.1237
       96.799      21.6022
       96.699      22.0917
       96.599      22.5926
       96.499      23.1054
       96.399      23.6293
       96.299      24.1653
       96.199      24.7126
       96.099      25.2722
       95.999      25.8444
       95.899      26.4296
       95.799      27.0288
       95.699      27.6411
       95.599      28.2673
       95.499      28.9075
       95.399      29.5614
       95.299      30.2305
       95.199      30.9145
       95.099      31.6144
       94.999      32.3306
       94.899       33.062
      94.7991      33.8104
      94.6991      34.5745
      94.5991      35.3562
      94.4991      36.1551
      94.3991      36.9718
      94.2991      37.8083
      94.1991      38.6635
      94.0991      39.5381
      93.9991      40.4317
      93.8991      41.3445
      93.7991      42.2775
      93.6991      43.2318
      93.5991      44.2075
      93.4991      45.2065
      93.3991      46.2281
      93.2991      47.2737
      93.1991       48.341
      93.0991      49.4333
      92.9991      50.5484
      92.8991      51.6888
      92.7991       52.856
      92.6991      54.0487
      92.5991      55.2692
      92.4991      56.5157
      92.3991      57.7907
      92.2991      59.0942
      92.1991      60.4256
      92.0991      61.7884
      91.9991      63.1824
      91.8991      64.6082
      91.7991      66.0666
      91.6991      67.5546
      91.5991      69.0772
      91.4991      70.6318
      91.3991      72.2226
      91.2991      73.8484
      91.1991      75.5116
      91.0992      77.2153
      90.9992      78.9556
      90.8992      80.7342
      90.7992      82.5515
      90.6992      84.4078
      90.5992      86.3055
      90.4992      88.2486
      90.3992      90.2343
      90.2992       92.267
      90.1992      94.3444
      90.0992      96.4689
      89.9992      98.6371
      89.8992      100.857
      89.7992      103.122
      89.6992      105.442
      89.5992      107.815
      89.4992      110.238
      89.3992      112.716
      89.2992      115.245
      89.1992      117.834
      89.0992      120.481
      88.9992      123.184
      88.8992      125.953
      88.7992      128.785
      88.6992       131.68
      88.5992      134.639
      88.4992      137.657
      88.3992      140.746
      88.2992      143.899
      88.1992      147.127
      88.0992      150.428
      87.9992      153.805
      87.8992      157.262
      87.7992       160.79
      87.6992      164.396
      87.5992       168.08
      87.4993      171.844
      87.3993      175.694
      87.2993      179.636
      87.1993      183.662
      87.0993      187.779
      86.9993      191.987
      86.8993      196.291
      86.7993      200.683
      86.6993       205.18
      86.5993      209.773
      86.4993      214.476
      86.3993      219.284
      86.2993      224.188
      86.1993      229.202
      86.0993      234.322
      85.9993      239.562
      85.8993      244.919
      85.7993      250.395
      85.6993      256.006
      85.5993      261.742
      85.4993      267.597
      85.3993      273.581
      85.2993      279.685
      85.1993      285.934
      85.0993      292.316
      84.9993      298.851
      84.8993      305.528
      84.7993      312.352
      84.6993       319.34
      84.5993      326.469
      84.4993      333.756
      84.3993      341.203
      84.2993      348.814
      84.1993      356.603
      84.0993      364.573
      83.9993        372.7
      83.8993      381.014
      83.7994       389.51
      83.6994      398.201
      83.5994       407.07
      83.4994      416.161
      83.3994      425.445
      83.2994      434.947
      83.1994      444.647
      83.0994      454.538
      82.9994      464.654
      82.8994      474.981
      82.7994      485.556
      82.6994      496.374
      82.5994      507.436
      82.4994      518.767
      82.3994       530.33
      82.2994      542.134
      82.1994        554.2
      82.0994      566.505
      81.9994      579.113
      81.8994      591.993
      81.7994      605.175
      81.6994       618.62
      81.5994      632.365
      81.4994      646.441
      81.3994      660.801
      81.2994      675.483
      81.1994      690.494
      81.0994      705.845
      80.9994      721.544
      80.8994      737.582
      80.7994      753.934
      80.6994      770.664
      80.5994      787.761
      80.4994      805.259
      80.3994      823.121
      80.2994      841.447
      80.1995      860.144
      80.0995      879.252
      79.9995      898.758
      79.8995      918.644
      79.7995      938.988
      79.6995      959.768
      79.5995       981.06
      79.4995      1002.82
      79.3995      1025.04
      79.2995      1047.81
      79.1995      1071.04
      79.0995      1094.75
      78.9995         1119
      78.8995      1143.73
      78.7995       1169.1
      78.6995      1194.99
      78.5995      1221.44
      78.4995      1248.41
      78.3995      1275.99
      78.2995      1304.25
      78.1995      1333.07
      78.0995      1362.56
      77.9995      1392.73
      77.8995      1423.56
      77.7995      1455.03
      77.6995      1487.17
      77.5995      1519.94
      77.4995      1553.47
      77.3995      1587.74
      77.2995      1622.84
      77.1995      1658.68
      77.0995       1695.4
      76.9995      1732.86
      76.8995      1771.15
      76.7995      1810.24
      76.6995      1850.08
      76.5995      1890.88
      76.4996      1932.57
      76.3996      1975.27
      76.2996      2018.83
      76.1996      2063.29
      76.0996      2108.87
      75.9996      2155.38
      75.8996      2202.85
      75.7996      2251.43
      75.6996      2301.03
      75.5996      2351.86
      75.4996      2403.62
      75.3996      2456.51
      75.2996      2510.43
      75.1996      2565.58
      75.0996       2622.1
      74.9996      2679.79
      74.8996      2738.88
      74.7996       2799.3
      74.6996      2860.88
      74.5996      2923.75
      74.4996      2987.97
      74.3996      3053.44
      74.2996      3120.48
      74.1996      3189.07
      74.0996      3259.26
      73.9996      3330.77
      73.8996      3404.07
      73.7996      3478.81
      73.6996      3555.25
      73.5996      3633.27
      73.4996      3712.84
      73.3996      3794.41
      73.2996      3877.71
      73.1996      3962.82
      73.0996      4049.62
      72.9996      4138.24
      72.8997      4229.13
      72.7997      4321.86
      72.6997      4416.56
      72.5997      4513.64
      72.4997      4612.62
      72.3997      4713.83
      72.2997      4816.84
      72.1997       4922.1
      72.0997      5029.38
      71.9997      5139.16
      71.8997      5251.75
      71.7997      5366.79
      71.6997      5484.36
      71.5997      5604.58
      71.4997       5727.1
      71.3997      5852.17
      71.2997      5979.98
      71.1997      6110.32
      71.0997         6244
      70.9997      6380.62
      70.8997      6520.11
      70.7997      6662.18
      70.6997      6807.85
      70.5997      6956.38
      70.4997      7108.35
      70.3997      7263.53
      70.2997      7422.02
      70.1997      7584.37
      70.0997      7749.65
      69.9997      7918.51
      69.8997      8090.71
      69.7997      8266.52
      69.6997      8446.94
      69.5997      8631.08
      69.4997      8819.36
      69.3997      9011.96
      69.2997      9208.24
      69.1998         9409
      69.0998      9613.26
      68.9998      9822.06
      68.8998      10034.9
      68.7998      10253.2
      68.6998      10476.9
      68.5998      10704.7
      68.4998      10937.6
      68.3998      11175.8
      68.2998      11418.5
      68.1998      11666.4
      68.0998      11919.8
      67.9998      12178.6
      67.8998      12443.9
      67.7998      12714.2
      67.6998      12990.1
      67.5998      13271.1
      67.4998      13559.3
      67.3998      13853.3
      67.2998      14154.3
      67.1998      14462.2
      67.0998      14776.3
      66.9998      15097.1
      66.8998      15423.5
      66.7998      15756.9
      66.6998      16096.9
      66.5998      16444.2
      66.4998      16800.8
      66.3998      17165.5
      66.2998      17537.1
      66.1998      17917.4
      66.0998      18304.9
      65.9998      18701.3
      65.8998      19104.6
      65.7998      19517.1
      65.6998      19938.4
      65.5998      20370.3
      65.4999      20811.2
      65.3999      21260.3
      65.2999      21719.5
      65.1999      22189.2
      65.0999      22667.8
      64.9999      23156.8
      64.8999      23658.1
      64.7999      24169.5
      64.6999      24691.8
      64.5999      25223.5
      64.4999      25766.5
      64.3999      26319.2
      64.2999      26886.7
      64.1999      27465.6
      64.0999      28059.8
      63.9999      28665.6
      63.8999      29283.4
      63.7999      29914.3
      63.6999      30556.1
      63.5999        31212
      63.4999      31881.2
      63.3999      32566.4
      63.2999      33269.7
      63.1999      33985.9
      63.0999      34715.5
      62.9999      35462.4
      62.8999      36223.3
      62.7999      37002.2
      62.6999      37794.8
      62.5999      38607.9
      62.4999      39437.1
      62.3999      40283.6
      62.2999      41147.9
      62.1999      42027.9
      62.0999      42927.8
      61.9999      43848.6
         61.9      44787.1
         61.8      45748.7
         61.7      46730.4
         61.6      47731.6
         61.5      48754.2
         61.4      49794.7
         61.3      50857.9
         61.2      51939.3
         61.1      53051.5
           61        54189
         60.9      55351.9
         60.8      56537.3
         60.7      57746.3
         60.6      58981.1
         60.5        60237
         60.4      61521.4
         60.3      62836.2
         60.2      64179.7
         60.1      65555.7
           60      66954.6
         59.9      68379.6
         59.8      69839.2
         59.7      71326.2
         59.6      72850.1
         59.5      74405.5
         59.4        75997
         59.3      77616.3
         59.2      79266.4
         59.1      80951.5
           59      82666.5
         58.9      84421.3
         58.8      86218.5
         58.7      88053.9
         58.6        89929
         58.5      91841.7
         58.4      93792.5
         58.3      95785.4
      58.2001      97812.6
      58.1001      99886.7
      58.0001       102003
      57.9001       104174
      57.8001       106390
      57.7001       108653
      57.6001       110958
      57.5001       113310
      57.4001       115713
      57.3001       118158
      57.2001       120668
      57.1001       123229
      57.0001       125843
      56.9001       128514
      56.8001       131228
      56.7001       133992
      56.6001       136825
      56.5001       139712
      56.4001       142678
      56.3001       145697
      56.2001       148782
      56.1001       151920
      56.0001       155116
      55.9001       158381
      55.8001       161702
      55.7001       165105
      55.6001       168598
      55.5001       172159
      55.4001       175789
      55.3001       179491
      55.2001       183269
      55.1001       187130
      55.0001       191058
      54.9001       195092
      54.8001       199200
      54.7001       203406
      54.6002       207687
      54.5002       212058
      54.4002       216510
      54.3002       221055
      54.2002       225700
      54.1002       230434
      54.0002       235287
      53.9002       240227
      53.8002       245270
      53.7002       250423
      53.6002       255656
      53.5002       260987
      53.4002       266458
      53.3002       272041
      53.2002       277778
      53.1002       283596
      53.0002       289544
      52.9002       295592
      52.8002       301754
      52.7002       308055
      52.6002       314483
      52.5002       321066
      52.4002       327808
      52.3002       334657
      52.2002       341638
      52.1002       348760
      52.0002       356031
      51.9002       363470
      51.8002       371057
      51.7002       378853
      51.6002       386763
      51.5002       394835
      51.4002       403045
      51.3002       411429
      51.2002       419969
      51.1002       428694
      51.0002       437632
      50.9003       446726
      50.8003       456023
      50.7003       465480
      50.6003       475137
      50.5003       485010
      50.4003       495030
      50.3003       505244
      50.2003       515752
      50.1003       526476
      50.0003       537460
      49.9003       548591
      49.8003       559978
      49.7003       571554
      49.6003       583360
      49.5003       595469
      49.4003       607830
      49.3003       620448
      49.2003       633316
      49.1003       646378
      49.0003       659692
      48.9003       673279
      48.8003       687160
      48.7003       701399
      48.6003       715909
