pressure[atm]        = 1
temperature[K]       = 200
energy step[1/cm]    = 42
maximum energy[1/cm] = 4170

Bimolecular-to-bimolecular product energy distributions:
  E, kcal/mol       P0->P1
      11.9225   8.3653e-09
      11.8024   1.0703e-08
      11.6823  1.36887e-08
      11.5622  1.75003e-08
      11.4421  2.23645e-08
      11.3221  2.85691e-08
       11.202  3.64802e-08
      11.0819  4.65626e-08
      10.9618  5.94066e-08
      10.8417   7.5761e-08
      10.7217  9.65757e-08
      10.6016  1.23055e-07
      10.4815  1.56723e-07
      10.3614  1.99513e-07
      10.2413  2.53868e-07
      10.1212  3.22879e-07
      10.0012  4.10454e-07
      9.88107   5.2153e-07
      9.76099  6.62339e-07
      9.64091  8.40744e-07
      9.52083  1.06666e-06
      9.40074  1.35257e-06
      9.28066  1.71422e-06
      9.16058  2.17138e-06
       9.0405  2.74893e-06
      8.92041  3.47812e-06
      8.80033  4.39816e-06
      8.68025  5.55822e-06
      8.56017  7.01993e-06
      8.44008  8.86042e-06
         8.32  1.11762e-05
      8.19992  1.40878e-05
      8.07984  1.77459e-05
      7.95975  2.23383e-05
      7.83967  2.80991e-05
      7.71959  3.53197e-05
      7.59951  4.43626e-05
      7.47942  5.56782e-05
      7.35934  6.98255e-05
      7.23926  8.74973e-05
      7.11918  0.000109552
      6.99909   0.00013705
      6.87901  0.000171303
      6.75893   0.00021393
      6.63885  0.000266925
      6.51876  0.000332746
      6.39868  0.000414415
       6.2786  0.000515641
      6.15852  0.000640978
      6.03843  0.000795999
      5.91835  0.000987523
      5.79827   0.00122387
      5.67819    0.0015152
       5.5581   0.00187386
      5.43802   0.00231485
      5.31794   0.00285635
      5.19786   0.00352035
      5.07777   0.00433338
      4.95769   0.00532739
      4.83761   0.00654073
      4.71753   0.00801936
      4.59744    0.0098181
      4.47736    0.0120022
      4.35728    0.0146488
       4.2372    0.0178492
      4.11711    0.0217106
      3.99703    0.0263586
      3.87695    0.0319391
      3.75687    0.0386206
      3.63678    0.0465961
       3.5167    0.0560854
      3.39662    0.0673364
      3.27654    0.0806266
      3.15645    0.0962639
      3.03637     0.114585
      2.91629     0.135952
      2.79621     0.160748
      2.67612     0.189365
      2.55604     0.222197
      2.43596     0.259615
      2.31588      0.30195
      2.19579     0.349455
      2.07571     0.402267
      1.95563     0.460352
      1.83555     0.523438
      1.71546      0.59093
      1.59538     0.661797
       1.4753     0.734441
      1.35522     0.806511
      1.23513     0.874675
      1.11505     0.934296
     0.994969     0.978991
     0.874887            1
     0.754804       0.9854
     0.634722     0.919561
     0.514639     0.784935
     0.394557     0.572748
     0.274474     0.313362
     0.154392       0.1045
    0.0343093    0.0296408
   -0.0857732    0.0181672
    -0.205856    0.0114723
    -0.325938   0.00730125
    -0.446021   0.00467832
    -0.566103   0.00300943
    -0.686186   0.00193435
    -0.806268   0.00123477
    -0.926351  0.000778428
     -1.04643  0.000482962
     -1.16652  0.000294491
      -1.2866  0.000176481
     -1.40668  0.000103975
     -1.52676  6.01795e-05
     -1.64685  3.42116e-05
     -1.76693  1.90849e-05
     -1.88701  1.04285e-05
     -2.00709  5.57073e-06
     -2.12718  2.89753e-06
     -2.24726  1.46331e-06
     -2.36734  7.14126e-07
     -2.48742  3.34894e-07
     -2.60751   1.4966e-07
     -2.72759  6.29086e-08
     -2.84767  2.45345e-08
     -2.96775  8.63852e-09
     -3.08784  2.62231e-09
     -3.20792  6.12677e-10
       -3.328  6.43785e-11
     -3.44808  -2.8683e-11
     -3.56817 -1.99499e-11
     -3.68825 -5.98275e-12
     -3.80833 -6.35048e-13

Well-to-bimolecular product energy distributions:
  E, kcal/mol       W0->P0       W0->P1
      11.9225 -2.64641e-16 -5.17021e-19
      11.8024 -4.67229e-16 -9.02994e-19
      11.6823  8.83789e-16  1.68962e-18
      11.5622  8.61054e-16  1.62829e-18
      11.4421 -6.22546e-16 -1.16442e-18
      11.3221 -1.72389e-17 -3.18905e-20
       11.202  2.56153e-16  4.68641e-19
      11.0819 -1.09774e-15  -1.9861e-18
      10.9618  1.49025e-16  2.66622e-19
      10.8417  2.73625e-15  4.84061e-18
      10.7217 -2.12227e-15 -3.71213e-18
      10.6016  1.35412e-14  2.34168e-17
      10.4815  9.43143e-15  1.61238e-17
      10.3614 -7.37832e-15 -1.24691e-17
      10.2413 -8.96138e-15 -1.49694e-17
      10.1212 -2.34261e-16 -3.86764e-19
      10.0012 -9.91814e-15 -1.61828e-17
      9.88107   9.0849e-15   1.4648e-17
      9.76099 -3.17643e-15 -5.06045e-18
      9.64091  7.75589e-15  1.22075e-17
      9.52083 -3.46115e-15  -5.3816e-18
      9.40074  3.42262e-14  5.25651e-17
      9.28066  2.44379e-14  3.70683e-17
      9.16058 -6.81573e-15 -1.02095e-17
       9.0405 -1.62166e-14 -2.39862e-17
      8.92041 -5.47752e-16 -7.99929e-19
      8.80033 -5.80802e-16 -8.37393e-19
      8.68025  5.20523e-14  7.40878e-17
      8.56017 -4.18707e-14 -5.88304e-17
      8.44008  3.44258e-14  4.77469e-17
         8.32    6.373e-15    8.725e-18
      8.19992 -7.99033e-15 -1.07979e-17
      8.07984 -1.37303e-14 -1.83148e-17
      7.95975 -3.45359e-14 -4.54716e-17
      7.83967  7.43188e-14  9.65869e-17
      7.71959 -1.27614e-13 -1.63709e-16
      7.59951 -2.52695e-14 -3.19987e-17
      7.47942  5.10394e-14  6.37986e-17
      7.35934 -2.47797e-13 -3.05763e-16
      7.23926 -1.62689e-13 -1.98175e-16
      7.11918 -3.27599e-13 -3.93964e-16
      6.99909 -1.55486e-14 -1.84609e-17
      6.87901  1.39397e-13  1.63413e-16
      6.75893 -1.49224e-13 -1.72729e-16
      6.63885 -7.99267e-14 -9.13544e-17
      6.51876  2.08891e-13  2.35761e-16
      6.39868  4.20038e-13  4.68116e-16
       6.2786  2.90498e-13  3.19671e-16
      6.15852  6.91713e-13  7.51537e-16
      6.03843  1.88753e-13  2.02462e-16
      5.91835 -4.02237e-13 -4.25894e-16
      5.79827  9.33266e-13  9.75279e-16
      5.67819   1.0175e-13  1.04927e-16
       5.5581  -1.4308e-12 -1.45571e-15
      5.43802 -2.10738e-12  -2.1149e-15
      5.31794  5.46259e-13  5.40633e-16
      5.19786 -1.19887e-12 -1.16987e-15
      5.07777 -7.38145e-13 -7.10042e-16
      4.95769  1.16123e-12  1.10092e-15
      4.83761  7.42114e-13  6.93306e-16
      4.71753  -3.4375e-12   -3.164e-15
      4.59744  7.99994e-13  7.25362e-16
      4.47736 -1.58464e-12 -1.41524e-15
      4.35728  3.12601e-12  2.74985e-15
       4.2372  8.25107e-12  7.14932e-15
      4.11711  1.69982e-11  1.45089e-14
      3.99703  5.18209e-11  4.35805e-14
      3.87695  1.34718e-10  1.11662e-13
      3.75687  3.71891e-10  3.03948e-13
      3.63678  1.05624e-09  8.51865e-13
       3.5167  2.96681e-09  2.36351e-12
      3.39662  8.06355e-09  6.35333e-12
      3.27654   2.1278e-08   1.6606e-11
      3.15645  5.44356e-08    4.215e-11
      3.03637  1.35745e-07  1.04477e-10
      2.91629  3.30357e-07  2.53246e-10
      2.79621  7.84686e-07  6.00494e-10
      2.67612  1.81992e-06  1.39388e-09
      2.55604  4.12919e-06  3.17428e-09
      2.43596  9.18622e-06  7.11116e-09
      2.31588  2.01095e-05  1.57342e-08
      2.19579  4.34411e-05  3.45016e-08
      2.07571  9.28624e-05  7.52354e-08
      1.95563  0.000196925  1.63692e-07
      1.83555  0.000414938  3.56282e-07
      1.71546  0.000869695  7.77557e-07
      1.59538   0.00181352  1.70445e-06
       1.4753   0.00376123  3.75908e-06
      1.35522   0.00775463  8.35766e-06
      1.23513    0.0158772  1.87752e-05
      1.11505    0.0321943  4.26885e-05
     0.994969    0.0644115  9.84684e-05
     0.874887     0.126306  0.000230887
     0.754804     0.240139  0.000551422
     0.634722     0.434024   0.00134158
     0.514639     0.716674   0.00330298
     0.394557            1   0.00808647
     0.274474     0.997115    0.0189422
     0.154392     0.468177    0.0402334
    0.0343093    0.0104621    0.0755301
   -0.0857732            0     0.131453
    -0.205856            0     0.218186
    -0.325938            0     0.342112
    -0.446021            0      0.50134
    -0.566103            0     0.679453
    -0.686186            0     0.844388
    -0.806268            0     0.959575
    -0.926351            0            1
     -1.04643            0     0.962933
     -1.16652            0     0.865688
      -1.2866            0     0.734405
     -1.40668            0     0.593519
     -1.52676            0     0.460545
     -1.64685            0     0.344923
     -1.76693            0     0.250264
     -1.88701            0     0.176331
     -2.00709            0     0.120781
     -2.12718            0     0.080456
     -2.24726            0    0.0520785
     -2.36734            0    0.0327095
     -2.48742            0    0.0198887
     -2.60751            0    0.0116703
     -2.72759            0   0.00658037
     -2.84767            0   0.00354463
     -2.96775            0   0.00181011
     -3.08784            0  0.000867054
     -3.20792            0  0.000383767
       -3.328            0  0.000153468
     -3.44808            0  5.34876e-05
     -3.56817            0  1.52034e-05
     -3.68825            0  3.08131e-06
     -3.80833            0  2.58731e-07

pressure[atm]        = 1
temperature[K]       = 210
energy step[1/cm]    = 44
maximum energy[1/cm] = 4379

Bimolecular-to-bimolecular product energy distributions:
  E, kcal/mol       P0->P1
        12.52  9.85557e-09
      12.3942  1.25918e-08
      12.2684  1.60815e-08
      12.1426    2.053e-08
      12.0168  2.61984e-08
       11.891   3.3418e-08
      11.7652  4.26094e-08
      11.6394  5.43056e-08
      11.5136  6.91824e-08
      11.3878   8.8096e-08
       11.262   1.1213e-07
      11.1362  1.42657e-07
      11.0104  1.81412e-07
      10.8846  2.30587e-07
      10.7588  2.92953e-07
       10.633  3.72006e-07
      10.5072  4.72161e-07
      10.3814  5.98982e-07
      10.2556  7.59481e-07
      10.1298  9.62491e-07
       10.004  1.21913e-06
      9.87821  1.54337e-06
      9.75241   1.9528e-06
      9.62661  2.46948e-06
      9.50081  3.12112e-06
      9.37501  3.94244e-06
      9.24921  4.97698e-06
      9.12341  6.27923e-06
      8.99761  7.91736e-06
      8.87181  9.97655e-06
      8.74601  1.25631e-05
      8.62021  1.58098e-05
      8.49441  1.98818e-05
      8.36861  2.49849e-05
      8.24281  3.13751e-05
        8.117  3.93706e-05
       7.9912  4.93661e-05
       7.8654  6.18511e-05
       7.7396  7.74319e-05
       7.6138  9.68584e-05
        7.488  0.000121057
       7.3622  0.000151173
       7.2364  0.000188614
       7.1106  0.000235116
       6.9848  0.000292813
        6.859  0.000364324
       6.7332  0.000452863
       6.6074  0.000562366
       6.4816  0.000697646
      6.35579  0.000864587
      6.22999   0.00107036
      6.10419    0.0013237
      5.97839   0.00163522
      5.85259   0.00201781
      5.72679   0.00248708
      5.60099   0.00306191
      5.47519   0.00376505
      5.34939   0.00462393
      5.22359   0.00567142
      5.09779   0.00694693
      4.97199   0.00849746
      4.84619     0.010379
      4.72039    0.0126581
      4.59458    0.0154133
      4.46878    0.0187371
      4.34298    0.0227378
      4.21718    0.0275419
      4.09138    0.0332962
      3.96558    0.0401702
      3.83978    0.0483576
      3.71398    0.0580782
      3.58818    0.0695788
      3.46238     0.083134
      3.33658    0.0990464
      3.21078     0.117645
      3.08498     0.139283
      2.95918      0.16433
      2.83337     0.193166
      2.70757     0.226161
      2.58177     0.263667
      2.45597     0.305985
      2.33017     0.353338
      2.20437     0.405829
      2.07857     0.463395
      1.95277     0.525737
      1.82697      0.59225
      1.70117     0.661921
      1.57537     0.733214
      1.44957     0.803913
      1.32377     0.870938
      1.19797     0.930082
      1.07217     0.975659
     0.946364            1
     0.820564     0.992752
     0.694763     0.940139
     0.568962     0.825354
     0.443162     0.634731
     0.317361     0.381305
      0.19156      0.14484
    0.0657595       0.0348
   -0.0600412    0.0188477
    -0.185842     0.011782
    -0.311643   0.00742011
    -0.437443   0.00470277
    -0.563244   0.00298964
    -0.689045   0.00189591
    -0.814845   0.00119091
    -0.940646  0.000736401
     -1.06645  0.000446681
     -1.19225   0.00026553
     -1.31805  0.000154744
     -1.44385  8.84559e-05
     -1.56965  4.95659e-05
     -1.69545  2.72242e-05
     -1.82125  1.46338e-05
     -1.94705  7.68538e-06
     -2.07285  3.92976e-06
     -2.19865  1.94914e-06
     -2.32445  9.34509e-07
     -2.45025  4.30317e-07
     -2.57606  1.89059e-07
     -2.70186  7.82483e-08
     -2.82766  3.01195e-08
     -2.95346   1.0551e-08
     -3.07926  3.24473e-09
     -3.20506  8.14051e-10
     -3.33086  1.33932e-10
     -3.45666 -2.52454e-12
     -3.58246 -1.02966e-11
     -3.70826 -3.11724e-12
     -3.83406 -2.08306e-13

Well-to-bimolecular product energy distributions:
  E, kcal/mol       W0->P0       W0->P1
        12.52  2.48567e-15  6.60282e-18
      12.3942  1.75265e-15  4.60442e-18
      12.2684 -1.10162e-15 -2.86205e-18
      12.1426  1.80036e-15  4.62538e-18
      12.0168 -5.69552e-16 -1.44691e-18
       11.891 -7.00278e-16 -1.75905e-18
      11.7652 -5.78913e-16 -1.43779e-18
      11.6394 -6.76018e-16 -1.65994e-18
      11.5136 -7.49777e-16 -1.82009e-18
      11.3878  3.28418e-15  7.88113e-18
       11.262 -6.95761e-15 -1.65042e-17
      11.1362  6.46958e-15   1.5169e-17
      11.0104 -6.52139e-15 -1.51125e-17
      10.8846 -3.65949e-15 -8.38109e-18
      10.7588  1.16722e-16  2.64172e-19
       10.633  1.11561e-14  2.49499e-17
      10.5072 -6.80812e-15 -1.50443e-17
      10.3814  7.91182e-16  1.72733e-18
      10.2556  1.87658e-14  4.04746e-17
      10.1298 -1.14761e-14 -2.44506e-17
       10.004  2.10532e-16  4.43045e-19
      9.87821 -8.85652e-15  -1.8407e-17
      9.75241 -7.62516e-15 -1.56498e-17
      9.62661 -1.71218e-14 -3.46975e-17
      9.50081 -3.24806e-14 -6.49847e-17
      9.37501 -5.44859e-15  -1.0761e-17
      9.24921   1.8406e-14  3.58808e-17
      9.12341 -2.24348e-14 -4.31622e-17
      8.99761  3.13017e-14  5.94266e-17
      8.87181  9.20165e-15  1.72373e-17
      8.74601  4.90882e-16  9.07266e-19
      8.62021  -2.8729e-14 -5.23849e-17
      8.49441 -1.01585e-13 -1.82736e-16
      8.36861  2.12201e-14  3.76563e-17
      8.24281 -5.46228e-14 -9.56203e-17
        8.117 -1.06537e-14 -1.83975e-17
       7.9912 -6.15371e-14 -1.04827e-16
       7.8654 -1.01454e-13 -1.70484e-16
       7.7396  3.80293e-14  6.30401e-17
       7.6138  1.49618e-13  2.44666e-16
        7.488  2.71663e-13  4.38251e-16
       7.3622 -5.07096e-13 -8.07045e-16
       7.2364  1.83982e-13  2.88879e-16
       7.1106  1.72749e-14  2.67619e-17
       6.9848 -1.25181e-13 -1.91349e-16
        6.859 -7.41863e-13 -1.11898e-15
       6.7332  6.72403e-13  1.00084e-15
       6.6074  6.57977e-13  9.66488e-16
       6.4816   6.2655e-15  9.08231e-18
      6.35579 -4.52585e-13  -6.4742e-16
      6.22999 -3.48026e-13 -4.91269e-16
      6.10419  1.21659e-12  1.69448e-15
      5.97839 -1.91128e-12 -2.62633e-15
      5.85259  1.88639e-13  2.55697e-16
      5.72679 -1.94061e-12 -2.59431e-15
      5.60099  2.02159e-14  2.66487e-17
      5.47519 -6.97973e-13 -9.07031e-16
      5.34939 -1.55946e-12 -1.99735e-15
      5.22359 -4.17242e-13 -5.26578e-16
      5.09779 -2.20184e-12 -2.73751e-15
      4.97199 -8.76243e-13 -1.07301e-15
      4.84619  4.87477e-14   5.8783e-17
      4.72039 -4.19308e-12 -4.97813e-15
      4.59458  7.02895e-12  8.21461e-15
      4.46878  6.34092e-12  7.29401e-15
      4.34298  1.28989e-11   1.4604e-14
      4.21718  2.90348e-11  3.23569e-14
      4.09138  6.30689e-11  6.91899e-14
      3.96558  2.11129e-10  2.28062e-13
      3.83978  6.10328e-10  6.49401e-13
      3.71398  1.76969e-09  1.85592e-12
      3.58818  4.94881e-09  5.12002e-12
      3.46238  1.33348e-08  1.36269e-11
      3.33658  3.48369e-08  3.52162e-11
      3.21078  8.85992e-08  8.87526e-11
      3.08498  2.19354e-07  2.18164e-10
      2.95918  5.29037e-07  5.23531e-10
      2.83337   1.2434e-06  1.22723e-09
      2.70757   2.8512e-06  2.81433e-09
      2.58177  6.39727e-06  6.33435e-09
      2.45597  1.40925e-05  1.40464e-08
      2.33017  3.06014e-05  3.08265e-08
      2.20437  6.57098e-05  6.72082e-08
      2.07857  0.000139856   1.4602e-07
      1.95277  0.000295701  3.17151e-07
      1.82697  0.000621782  6.90184e-07
      1.70117   0.00130128  1.50825e-06
      1.57537   0.00270972  3.31473e-06
      1.44957    0.0056112  7.33939e-06
      1.32377    0.0115459  1.64094e-05
      1.19797    0.0235671  3.71344e-05
      1.07217     0.047556  8.52395e-05
     0.946364    0.0943833  0.000199007
     0.820564     0.182504  0.000473546
     0.694763     0.338606   0.00115125
     0.568962     0.583822   0.00285093
     0.443162     0.877028   0.00710004
     0.317361            1    0.0172194
      0.19156      0.62116    0.0383705
    0.0657595    0.0577791    0.0749109
   -0.0600412            0     0.132318
    -0.185842            0     0.222113
    -0.311643            0     0.351696
    -0.437443            0     0.518877
    -0.563244            0     0.704575
    -0.689045            0     0.871493
    -0.814845            0     0.978375
    -0.940646            0            1
     -1.06645            0     0.938723
     -1.19225            0     0.818986
     -1.31805            0     0.672155
     -1.44385            0      0.52433
     -1.56965            0      0.39196
     -1.69545            0     0.282264
     -1.82125            0     0.196543
     -1.94705            0     0.132586
     -2.07285            0    0.0867306
     -2.19865            0    0.0549961
     -2.32445            0    0.0337567
     -2.45025            0     0.020013
     -2.57606            0    0.0114216
     -2.70186            0   0.00624712
     -2.82766            0   0.00325421
     -2.95346            0   0.00160097
     -3.07926            0  0.000735248
     -3.20506            0  0.000309994
     -3.33086            0  0.000116983
     -3.45666            0  3.78998e-05
     -3.58246            0   9.7425e-06
     -3.70826            0  1.66689e-06
     -3.83406            0  8.20588e-08

pressure[atm]        = 1
temperature[K]       = 220
energy step[1/cm]    = 46
maximum energy[1/cm] = 4587

Bimolecular-to-bimolecular product energy distributions:
  E, kcal/mol       P0->P1
      13.1147  1.16204e-08
      12.9832  1.48267e-08
      12.8517  1.89101e-08
      12.7202  2.41083e-08
      12.5886  3.07229e-08
      12.4571   3.9136e-08
      12.3256  4.98318e-08
      12.1941  6.34232e-08
      12.0626  8.06859e-08
      11.9311  1.02601e-07
      11.7995  1.30409e-07
       11.668  1.65677e-07
      11.5365  2.10384e-07
       11.405  2.67026e-07
      11.2735  3.38755e-07
      11.1419  4.29538e-07
      11.0104  5.44378e-07
      10.8789   6.8957e-07
      10.7474  8.73032e-07
      10.6159  1.10472e-06
      10.4843  1.39715e-06
      10.3528  1.76601e-06
      10.2213  2.23102e-06
      10.0898  2.81688e-06
      9.95827  3.55455e-06
      9.82675  4.48276e-06
      9.69523     5.65e-06
      9.56371  7.11685e-06
      9.43219  8.95898e-06
      9.30067  1.12708e-05
      9.16916  1.41699e-05
      9.03764  1.78029e-05
      8.90612  2.23521e-05
       8.7746   2.8044e-05
      8.64308  3.51598e-05
      8.51156  4.40482e-05
      8.38004  5.51412e-05
      8.24852  6.89734e-05
        8.117  8.62057e-05
      7.98549  0.000107654
      7.85397  0.000134324
      7.72245  0.000167455
      7.59093   0.00020857
      7.45941  0.000259543
      7.32789  0.000322668
      7.19637  0.000400759
      7.06485  0.000497255
      6.93333  0.000616358
      6.80182  0.000763194
       6.6703  0.000944006
      6.53878   0.00116639
      6.40726   0.00143956
      6.27574   0.00177472
      6.14422   0.00218537
       6.0127   0.00268788
      5.88118   0.00330195
      5.74966    0.0040513
      5.61815   0.00496438
      5.48663   0.00607528
      5.35511   0.00742472
