pressure[atm]        = 0.1
temperature[K]       = 200
energy step[1/cm]    = 42
maximum energy[1/cm] = 4170

Bimolecular-to-bimolecular product energy distributions:
  E, kcal/mol       P0->P1
      11.9225  8.34055e-09
      11.8024  1.06713e-08
      11.6823  1.36482e-08
      11.5622  1.74486e-08
      11.4421  2.22984e-08
      11.3221  2.84847e-08
       11.202  3.63723e-08
      11.0819  4.64249e-08
      10.9618  5.92309e-08
      10.8417   7.5537e-08
      10.7217  9.62902e-08
      10.6016  1.22691e-07
      10.4815   1.5626e-07
      10.3614  1.98923e-07
      10.2413  2.53117e-07
      10.1212  3.21924e-07
      10.0012  4.09241e-07
      9.88107  5.19988e-07
      9.76099  6.60381e-07
      9.64091  8.38258e-07
      9.52083   1.0635e-06
      9.40074  1.34858e-06
      9.28066  1.70915e-06
      9.16058  2.16496e-06
       9.0405   2.7408e-06
      8.92041  3.46783e-06
      8.80033  4.38515e-06
      8.68025  5.54179e-06
      8.56017  6.99917e-06
      8.44008  8.83422e-06
         8.32  1.11431e-05
      8.19992  1.40462e-05
      8.07984  1.76934e-05
      7.95975  2.22723e-05
      7.83967   2.8016e-05
      7.71959  3.52152e-05
      7.59951  4.42314e-05
      7.47942  5.55136e-05
      7.35934   6.9619e-05
      7.23926  8.72386e-05
      7.11918  0.000109228
      6.99909  0.000136644
      6.87901  0.000170796
      6.75893  0.000213297
      6.63885  0.000266136
      6.51876  0.000331762
      6.39868  0.000413189
       6.2786  0.000514117
      6.15852  0.000639083
      6.03843  0.000793646
      5.91835  0.000984603
      5.79827   0.00122026
      5.67819   0.00151072
       5.5581   0.00186832
      5.43802     0.002308
      5.31794    0.0028479
      5.19786   0.00350994
      5.07777   0.00432057
      4.95769   0.00531163
      4.83761   0.00652139
      4.71753   0.00799564
      4.59744   0.00978906
      4.47736    0.0119667
      4.35728    0.0146054
       4.2372    0.0177964
      4.11711    0.0216464
      3.99703    0.0262807
      3.87695    0.0318447
      3.75687    0.0385064
      3.63678    0.0464584
       3.5167    0.0559196
      3.39662    0.0671374
      3.27654    0.0803883
      3.15645    0.0959795
      3.03637     0.114247
      2.91629     0.135551
      2.79621     0.160273
      2.67612     0.188807
      2.55604     0.221542
      2.43596     0.258851
      2.31588     0.301063
      2.19579     0.348431
      2.07571     0.401092
      1.95563     0.459014
      1.83555     0.521929
      1.71546     0.589246
      1.59538     0.659947
       1.4753      0.73245
      1.35522     0.804437
      1.23513     0.872631
      1.11505     0.932488
     0.994969     0.977781
     0.874887            1
     0.754804     0.987557
     0.634722     0.925041
     0.514639     0.794099
     0.394557     0.581924
     0.274474     0.311028
     0.154392    0.0820308
    0.0343093   0.00427316
   -0.0857732   0.00191285
    -0.205856   0.00109059
    -0.325938   0.00062309
    -0.446021  0.000356931
    -0.566103  0.000205138
    -0.686186  0.000118383
    -0.806268   6.8645e-05
    -0.926351  4.00086e-05
     -1.04643   2.3427e-05
     -1.16652  1.37555e-05
      -1.2866  8.07117e-06
     -1.40668  4.71151e-06
     -1.52676  2.72216e-06
     -1.64685  1.55108e-06
     -1.76693  8.69026e-07
     -1.88701  4.77438e-07
     -2.00709  2.56612e-07
     -2.12718  1.34421e-07
     -2.24726  6.84511e-08
     -2.36734  3.37457e-08
     -2.48742  1.60288e-08
     -2.60751  7.28418e-09
     -2.72759  3.13392e-09
     -2.84767  1.26385e-09
     -2.96775  4.68788e-10
     -3.08784  1.55685e-10
     -3.20792  4.39848e-11
       -3.328  9.37327e-12
     -3.44808  9.40166e-13
     -3.56817 -2.69831e-13
     -3.68825 -1.42983e-13
     -3.80833 -1.80396e-14

Well-to-bimolecular product energy distributions:
  E, kcal/mol       W0->P0       W0->P1
      11.9225 -4.25515e-15 -1.57446e-19
      11.8024  1.27351e-12  4.66149e-17
      11.6823 -2.90623e-13 -1.05229e-17
      11.5622  -2.3514e-13 -8.42161e-18
      11.4421  7.03059e-13  2.49056e-17
      11.3221  1.19903e-12  4.20097e-17
       11.202   9.8846e-13  3.42506e-17
      11.0819  1.48873e-13  5.10136e-18
      10.9618 -2.20198e-12 -7.46135e-17
      10.8417  2.12799e-13  7.12985e-18
      10.7217  1.14179e-13  3.78248e-18
      10.6016  1.03779e-12  3.39898e-17
      10.4815  2.34744e-12  7.60068e-17
      10.3614 -6.93017e-13 -2.21813e-17
      10.2413 -1.51548e-12 -4.79454e-17
      10.1212 -2.98424e-13 -9.33139e-18
      10.0012 -8.52594e-13 -2.63471e-17
      9.88107 -9.91772e-13 -3.02857e-17
      9.76099  3.89107e-13  1.17405e-17
      9.64091 -4.27204e-12 -1.27349e-16
      9.52083 -7.06752e-12 -2.08125e-16
      9.40074  3.54567e-12  1.03135e-16
      9.28066  6.76516e-12   1.9435e-16
      9.16058 -1.54845e-12 -4.39294e-17
       9.0405  8.69293e-12   2.4352e-16
      8.92041 -1.67131e-11 -4.62265e-16
      8.80033 -7.83667e-12 -2.13993e-16
      8.68025  1.07342e-11  2.89364e-16
      8.56017  4.27918e-11  1.13873e-15
      8.44008  1.11796e-11  2.93666e-16
         8.32   6.4658e-12  1.67653e-16
      8.19992  1.43572e-11  3.67462e-16
      8.07984 -1.47526e-11 -3.72698e-16
      7.95975  1.76112e-11  4.39163e-16
      7.83967  1.57183e-11  3.86895e-16
      7.71959  3.51694e-12  8.54489e-17
      7.59951  -1.9699e-11 -4.72439e-16
      7.47942  8.51886e-11  2.01676e-15
      7.35934 -1.28379e-10  -3.0002e-15
      7.23926 -1.50767e-10 -3.47828e-15
      7.11918  1.11887e-10  2.54836e-15
      6.99909  5.25969e-11  1.18274e-15
      6.87901  5.56535e-11  1.23564e-15
      6.75893 -1.01381e-10 -2.22256e-15
      6.63885  4.79151e-11  1.03724e-15
      6.51876 -8.35216e-11 -1.78533e-15
      6.39868  1.31502e-12  2.77565e-17
       6.2786 -2.77461e-12 -5.78267e-17
      6.15852 -1.50363e-10  -3.0941e-15
      6.03843  1.54036e-10  3.12924e-15
      5.91835  2.28235e-10  4.57686e-15
      5.79827  7.47148e-12  1.47876e-16
      5.67819 -6.07284e-10 -1.18607e-14
       5.5581  6.19083e-10  1.19292e-14
      5.43802  1.05804e-10  2.01102e-15
      5.31794 -6.71071e-10 -1.25788e-14
      5.19786  1.18976e-10  2.19885e-15
      5.07777 -2.44484e-10  -4.4541e-15
      4.95769   6.2713e-11  1.12606e-15
      4.83761 -3.38375e-10 -5.98714e-15
      4.71753  8.38927e-10  1.46246e-14
      4.59744  2.65609e-10   4.5612e-15
      4.47736  1.31245e-09  2.21999e-14
      4.35728 -2.05348e-09 -3.42118e-14
       4.2372   6.4963e-10  1.06608e-14
      4.11711  2.07405e-09  3.35288e-14
      3.99703  3.44068e-09  5.48023e-14
      3.87695 -8.00815e-10 -1.25712e-14
      3.75687  7.03528e-10  1.08901e-14
      3.63678  4.95142e-09  7.56316e-14
       3.5167 -2.19153e-09  -3.3066e-14
      3.39662  -3.6169e-09 -5.39733e-14
      3.27654  6.29156e-09  9.29948e-14
      3.15645 -6.79641e-09 -9.96693e-14
      3.03637   1.0539e-09  1.53624e-14
      2.91629  1.30626e-08  1.89651e-13
      2.79621   2.5796e-08  3.73879e-13
      2.67612  9.96998e-08  1.44622e-12
      2.55604  2.85366e-07   4.1548e-12
      2.43596  8.29146e-07  1.21563e-11
      2.31588  2.38689e-06  3.53706e-11
      2.19579   6.7178e-06  1.01049e-10
      2.07571  1.82919e-05  2.80677e-10
      1.95563  4.80429e-05  7.56353e-10
      1.83555  0.000121123  1.96971e-09
      1.71546  0.000294075  4.97956e-09
      1.59538  0.000691293  1.23053e-08
       1.4753   0.00158334  2.99705e-08
      1.35522   0.00355345  7.25338e-08
      1.23513   0.00784676  1.75739e-07
      1.11505    0.0170711  4.28706e-07
     0.994969    0.0365711  1.05886e-06
     0.874887    0.0768455  2.66049e-06
     0.754804     0.157135  6.83378e-06
     0.634722     0.307726   1.8015e-05
     0.514639     0.557666  4.86772e-05
     0.394557     0.871474  0.000133469
     0.274474            1  0.000359794
     0.154392     0.554257  0.000902101
    0.0343093    0.0148348   0.00202839
   -0.0857732            0   0.00432196
    -0.205856            0   0.00910488
    -0.325938            0    0.0188938
    -0.446021            0     0.038398
    -0.566103            0    0.0757386
    -0.686186            0     0.142925
    -0.806268            0     0.253727
    -0.926351            0     0.415408
     -1.04643            0     0.615055
     -1.16652            0     0.812268
      -1.2866            0     0.953069
     -1.40668            0            1
     -1.52676            0     0.951707
     -1.64685            0      0.83335
     -1.76693            0     0.680751
     -1.88701            0     0.524746
     -2.00709            0     0.384847
     -2.12718            0     0.270172
     -2.24726            0     0.182104
     -2.36734            0     0.118035
     -2.48742            0     0.073563
     -2.60751            0    0.0440164
     -2.72759            0    0.0252103
     -2.84767            0    0.0137509
     -2.96775            0   0.00709321
     -3.08784            0   0.00342545
     -3.20792            0   0.00152619
       -3.328            0  0.000613634
     -3.44808            0  0.000214806
     -3.56817            0  6.12735e-05
     -3.68825            0   1.2454e-05
     -3.80833            0  1.04817e-06

pressure[atm]        = 1
temperature[K]       = 200
energy step[1/cm]    = 42
maximum energy[1/cm] = 4170

Bimolecular-to-bimolecular product energy distributions:
  E, kcal/mol       P0->P1
      11.9225  8.36347e-09
      11.8024  1.07007e-08
      11.6823  1.36857e-08
      11.5622  1.74965e-08
      11.4421  2.23596e-08
      11.3221  2.85629e-08
       11.202  3.64722e-08
      11.0819  4.65524e-08
      10.9618  5.93936e-08
      10.8417  7.57444e-08
      10.7217  9.65546e-08
      10.6016  1.23028e-07
      10.4815  1.56689e-07
      10.3614  1.99469e-07
      10.2413  2.53812e-07
      10.1212  3.22809e-07
      10.0012  4.10365e-07
      9.88107  5.21416e-07
      9.76099  6.62194e-07
      9.64091   8.4056e-07
      9.52083  1.06643e-06
      9.40074  1.35228e-06
      9.28066  1.71384e-06
      9.16058   2.1709e-06
       9.0405  2.74833e-06
      8.92041  3.47736e-06
      8.80033   4.3972e-06
      8.68025  5.55701e-06
      8.56017   7.0184e-06
      8.44008  8.85849e-06
         8.32  1.11737e-05
      8.19992  1.40847e-05
      8.07984   1.7742e-05
      7.95975  2.23334e-05
      7.83967  2.80929e-05
      7.71959   3.5312e-05
      7.59951  4.43529e-05
      7.47942  5.56661e-05
      7.35934  6.98103e-05
      7.23926  8.74782e-05
      7.11918  0.000109528
      6.99909   0.00013702
      6.87901  0.000171265
      6.75893  0.000213883
      6.63885  0.000266867
      6.51876  0.000332674
      6.39868  0.000414324
       6.2786  0.000515529
      6.15852  0.000640838
      6.03843  0.000795826
      5.91835  0.000987308
      5.79827   0.00122361
      5.67819   0.00151487
       5.5581   0.00187345
      5.43802   0.00231434
      5.31794   0.00285572
      5.19786   0.00351958
      5.07777   0.00433244
      4.95769   0.00532622
      4.83761    0.0065393
      4.71753   0.00801761
      4.59744   0.00981595
      4.47736    0.0119995
      4.35728    0.0146456
       4.2372    0.0178453
      4.11711    0.0217059
      3.99703    0.0263529
      3.87695    0.0319321
      3.75687    0.0386121
      3.63678     0.046586
       3.5167    0.0560731
      3.39662    0.0673217
      3.27654     0.080609
      3.15645    0.0962429
      3.03637      0.11456
      2.91629     0.135923
      2.79621     0.160713
      2.67612     0.189324
      2.55604     0.222148
      2.43596     0.259559
      2.31588     0.301885
      2.19579      0.34938
      2.07571     0.402181
      1.95563     0.460255
      1.83555      0.52333
      1.71546      0.59081
      1.59538     0.661668
       1.4753     0.734305
      1.35522     0.806375
      1.23513     0.874548
      1.11505     0.934194
     0.994969     0.978931
     0.874887            1
     0.754804     0.985464
     0.634722     0.919657
     0.514639     0.784987
     0.394557     0.572731
     0.274474      0.31351
     0.154392     0.104925
    0.0343093    0.0295288
   -0.0857732    0.0174169
    -0.205856    0.0106041
    -0.325938   0.00652605
    -0.446021   0.00405837
    -0.566103   0.00254463
    -0.686186   0.00160189
    -0.806268   0.00100634
    -0.926351  0.000627131
     -1.04643  0.000386035
     -1.16652   0.00023419
      -1.2866  0.000139903
     -1.40668   8.2272e-05
     -1.52676  4.75692e-05
     -1.64685  2.70291e-05
     -1.76693  1.50752e-05
     -1.88701  8.23745e-06
     -2.00709  4.40064e-06
     -2.12718  2.28933e-06
     -2.24726  1.15641e-06
     -2.36734  5.64506e-07
     -2.48742  2.64806e-07
     -2.60751  1.18374e-07
     -2.72759  4.97811e-08
     -2.84767  1.94256e-08
     -2.96775  6.84573e-09
     -3.08784  2.08108e-09
     -3.20792  4.87794e-10
       -3.328  5.23076e-11
     -3.44808  -2.2173e-11
     -3.56817 -1.56238e-11
     -3.68825 -4.69821e-12
     -3.80833 -4.99117e-13

Well-to-bimolecular product energy distributions:
  E, kcal/mol       W0->P0       W0->P1
      11.9225 -2.53825e-16 -3.95049e-19
      11.8024 -1.30461e-15 -2.00864e-18
      11.6823  1.21434e-15  1.84946e-18
      11.5622 -1.52197e-15 -2.29283e-18
      11.4421  4.13556e-16  6.16224e-19
      11.3221  1.19684e-15  1.76383e-18
       11.202  1.83996e-15  2.68173e-18
      11.0819 -9.66157e-16 -1.39257e-18
      10.9618    4.188e-15  5.96911e-18
      10.8417 -3.45463e-15 -4.86869e-18
      10.7217 -4.32035e-15 -6.02015e-18
      10.6016    8.306e-16  1.14427e-18
      10.4815  1.96406e-15  2.67492e-18
      10.3614  2.29471e-15  3.08937e-18
      10.2413 -2.67076e-15 -3.55411e-18
      10.1212 -4.47119e-17 -5.88077e-20
      10.0012  3.31203e-15   4.3051e-18
      9.88107  9.38677e-15   1.2057e-17
      9.76099  8.81036e-15  1.11817e-17
      9.64091  1.87285e-14  2.34834e-17
      9.52083   1.1021e-14  1.36514e-17
      9.40074  -1.6046e-14 -1.96323e-17
      9.28066 -7.17193e-15 -8.66644e-18
      9.16058  2.54367e-14  3.03542e-17
       9.0405 -2.28271e-15 -2.68978e-18
      8.92041  1.72268e-15  2.00419e-18
      8.80033  -1.7083e-14 -1.96215e-17
      8.68025 -3.20128e-14 -3.62991e-17
      8.56017  2.94405e-14  3.29536e-17
      8.44008  1.55766e-14  1.72108e-17
         8.32  2.94023e-14  3.20677e-17
      8.19992 -4.83308e-14 -5.20312e-17
      8.07984 -7.56166e-14 -8.03536e-17
      7.95975   4.6434e-14  4.87047e-17
      7.83967  4.20624e-14   4.3549e-17
      7.71959 -6.46924e-15 -6.61139e-18
      7.59951 -1.48951e-13  -1.5026e-16
      7.47942 -7.43211e-14 -7.40088e-17
      7.35934 -1.26478e-15 -1.24328e-18
      7.23926  1.03355e-13  1.00297e-16
      7.11918 -4.67573e-14 -4.47949e-17
      6.99909 -3.13422e-13 -2.96453e-16
      6.87901 -1.68709e-13 -1.57556e-16
      6.75893  4.25245e-13  3.92133e-16
      6.63885  5.23651e-13   4.7681e-16
      6.51876 -9.41727e-13  -8.4673e-16
      6.39868 -7.65833e-13 -6.79931e-16
       6.2786 -2.49281e-13 -2.18531e-16
      6.15852 -1.01831e-12  -8.8139e-16
      6.03843 -5.24626e-13 -4.48295e-16
      5.91835  9.55968e-13  8.06358e-16
      5.79827 -4.93143e-13 -4.10547e-16
      5.67819  4.43689e-13    3.645e-16
       5.5581  1.06799e-12  8.65623e-16
      5.43802  1.39804e-12  1.11772e-15
      5.31794  1.05081e-12  8.28505e-16
      5.19786 -1.20532e-12  -9.3699e-16
      5.07777  1.04848e-14  8.03472e-18
      4.95769  1.78937e-12  1.35146e-15
      4.83761 -4.66792e-12 -3.47411e-15
      4.71753 -1.66922e-12 -1.22397e-15
      4.59744   2.7828e-13  2.01009e-16
      4.47736  1.10159e-12  7.83767e-16
      4.35728 -1.54664e-12 -1.08386e-15
       4.2372  4.35067e-12  3.00314e-15
      4.11711  1.15497e-12  7.85356e-16
      3.99703 -6.74133e-12 -4.51647e-15
      3.87695  2.11365e-11  1.39566e-14
      3.75687  6.16377e-11  4.01324e-14
      3.63678  1.64291e-10  1.05557e-13
       3.5167  5.14717e-10  3.26664e-13
      3.39662  1.45577e-09  9.13761e-13
      3.27654  4.37484e-09  2.71995e-12
      3.15645  1.23629e-08  7.62604e-12
      3.03637  3.39044e-08  2.07882e-11
      2.91629  9.02668e-08  5.51256e-11
      2.79621  2.33911e-07  1.42603e-10
      2.67612  5.90755e-07   3.6045e-10
      2.55604  1.45558e-06  8.91416e-10
      2.43596  3.50309e-06  2.16033e-09
      2.31588  8.25546e-06  5.14577e-09
      2.19579  1.90996e-05  1.20845e-08
      2.07571  4.35184e-05   2.8088e-08
      1.95563  9.79802e-05  6.48832e-08
      1.83555  0.000218546  1.49492e-07
      1.71546  0.000483887  3.44647e-07
      1.59538   0.00106441  7.96962e-07
       1.4753    0.0023266  1.85242e-06
      1.35522   0.00505226  4.33785e-06
      1.23513      0.01089   1.0259e-05
      1.11505    0.0232375  2.45464e-05
     0.994969    0.0489038  5.95582e-05
     0.874887     0.100818  0.000146818
     0.754804     0.201366  0.000368359
     0.634722     0.381904  0.000940423
     0.514639     0.660587   0.00242538
     0.394557     0.963079   0.00620421
     0.274474            1    0.0151339
     0.154392      0.48729    0.0333603
    0.0343093    0.0112715    0.0648259
   -0.0857732            0     0.116444
    -0.205856            0     0.198752
    -0.325938            0     0.319246
    -0.446021            0     0.477377
    -0.566103            0     0.657724
    -0.686186            0     0.828272
    -0.806268            0     0.951319
    -0.926351            0            1
     -1.04643            0     0.969824
     -1.16652            0     0.877076
      -1.2866            0     0.747759
     -1.40668            0     0.606803
     -1.52676            0     0.472451
     -1.64685            0     0.354821
     -1.76693            0     0.258027
     -1.88701            0     0.182132
     -2.00709            0     0.124939
     -2.12718            0    0.0833252
     -2.24726            0    0.0539879
     -2.36734            0    0.0339353
     -2.48742            0    0.0206472
     -2.60751            0    0.0121216
     -2.72759            0   0.00683774
     -2.84767            0   0.00368455
     -2.96775            0    0.0018821
     -3.08784            0  0.000901743
     -3.20792            0  0.000399197
       -3.328            0  0.000159663
     -3.44808            0  5.56539e-05
     -3.56817            0  1.58208e-05
     -3.68825            0  3.20669e-06
     -3.80833            0  2.69277e-07

pressure[atm]        = 2
temperature[K]       = 200
energy step[1/cm]    = 42
maximum energy[1/cm] = 4170

Bimolecular-to-bimolecular product energy distributions:
  E, kcal/mol       P0->P1
      11.9225  8.38928e-09
      11.8024  1.07337e-08
      11.6823  1.37279e-08
      11.5622  1.75505e-08
      11.4421  2.24286e-08
      11.3221   2.8651e-08
       11.202  3.65848e-08
      11.0819  4.66961e-08
      10.9618  5.95768e-08
      10.8417  7.59781e-08
      10.7217  9.68525e-08
      10.6016  1.23407e-07
      10.4815  1.57173e-07
      10.3614  2.00085e-07
      10.2413  2.54595e-07
      10.1212  3.23804e-07
      10.0012  4.11631e-07
      9.88107  5.23025e-07
      9.76099  6.64237e-07
      9.64091  8.43154e-07
      9.52083  1.06972e-06
      9.40074  1.35645e-06
      9.28066  1.71913e-06
      9.16058   2.1776e-06
       9.0405  2.75681e-06
      8.92041  3.48809e-06
      8.80033  4.41076e-06
      8.68025  5.57415e-06
      8.56017  7.04005e-06
      8.44008  8.88582e-06
         8.32  1.12082e-05
      8.19992  1.41282e-05
      8.07984  1.77968e-05
      7.95975  2.24023e-05
      7.83967  2.81796e-05
      7.71959  3.54209e-05
      7.59951  4.44897e-05
      7.47942  5.58378e-05
      7.35934  7.00256e-05
      7.23926  8.77481e-05
      7.11918  0.000109866
      6.99909  0.000137443
      6.87901  0.000171794
      6.75893  0.000214543
      6.63885   0.00026769
      6.51876    0.0003337
      6.39868  0.000415603
       6.2786   0.00051712
      6.15852  0.000642815
      6.03843  0.000798281
      5.91835  0.000990354
      5.79827   0.00122738
      5.67819   0.00151955
       5.5581   0.00187923
      5.43802   0.00232148
      5.31794   0.00286453
      5.19786   0.00353044
