pressure[atm]        = 0.1
temperature[K]       = 200
energy step[1/cm]    = 42
maximum energy[1/cm] = 4170

Bimolecular-to-bimolecular product energy distributions:
  E, kcal/mol       P0->P1
      11.9225   8.3404e-09
      11.8024  1.06711e-08
      11.6823  1.36479e-08
      11.5622  1.74483e-08
      11.4421   2.2298e-08
      11.3221  2.84841e-08
       11.202  3.63717e-08
      11.0819  4.64241e-08
      10.9618  5.92298e-08
      10.8417  7.55356e-08
      10.7217  9.62884e-08
      10.6016  1.22689e-07
      10.4815  1.56257e-07
      10.3614  1.98919e-07
      10.2413  2.53112e-07
      10.1212  3.21918e-07
      10.0012  4.09233e-07
      9.88107  5.19978e-07
      9.76099  6.60368e-07
      9.64091  8.38242e-07
      9.52083  1.06349e-06
      9.40074  1.34855e-06
      9.28066  1.70912e-06
      9.16058  2.16492e-06
       9.0405  2.74075e-06
      8.92041  3.46777e-06
      8.80033  4.38507e-06
      8.68025  5.54168e-06
      8.56017  6.99904e-06
      8.44008  8.83406e-06
         8.32  1.11429e-05
      8.19992  1.40459e-05
      8.07984  1.76931e-05
      7.95975  2.22718e-05
      7.83967  2.80155e-05
      7.71959  3.52146e-05
      7.59951  4.42306e-05
      7.47942  5.55125e-05
      7.35934  6.96177e-05
      7.23926  8.72369e-05
      7.11918  0.000109226
      6.99909  0.000136642
      6.87901  0.000170793
      6.75893  0.000213293
      6.63885  0.000266131
      6.51876  0.000331756
      6.39868  0.000413182
       6.2786  0.000514107
      6.15852  0.000639071
      6.03843  0.000793631
      5.91835  0.000984584
      5.79827   0.00122023
      5.67819   0.00151069
       5.5581   0.00186828
      5.43802   0.00230796
      5.31794   0.00284784
      5.19786   0.00350987
      5.07777   0.00432048
      4.95769   0.00531153
      4.83761   0.00652127
      4.71753   0.00799549
      4.59744   0.00978887
      4.47736    0.0119664
      4.35728    0.0146052
       4.2372     0.017796
      4.11711     0.021646
      3.99703    0.0262802
      3.87695    0.0318441
      3.75687    0.0385057
      3.63678    0.0464575
       3.5167    0.0559185
      3.39662    0.0671361
      3.27654    0.0803868
      3.15645    0.0959777
      3.03637     0.114244
      2.91629     0.135548
      2.79621      0.16027
      2.67612     0.188803
      2.55604     0.221538
      2.43596     0.258847
      2.31588     0.301058
      2.19579     0.348425
      2.07571     0.401085
      1.95563     0.459006
      1.83555     0.521919
      1.71546     0.589235
      1.59538     0.659935
       1.4753     0.732437
      1.35522     0.804424
      1.23513     0.872617
      1.11505     0.932476
     0.994969     0.977773
     0.874887            1
     0.754804     0.987572
     0.634722     0.925079
     0.514639     0.794166
     0.394557     0.581997
     0.274474     0.311018
     0.154392    0.0818537
    0.0343093   0.00407132
   -0.0857732   0.00179554
    -0.205856   0.00102311
    -0.325938  0.000584126
    -0.446021  0.000334325
    -0.566103  0.000191948
    -0.686186  0.000110634
    -0.806268  6.40593e-05
    -0.926351  3.72771e-05
     -1.04643  2.17935e-05
     -1.16652  1.27794e-05
      -1.2866  7.49149e-06
     -1.40668  4.37095e-06
     -1.52676  2.52501e-06
     -1.64685  1.43884e-06
     -1.76693  8.06268e-07
     -1.88701  4.43047e-07
     -2.00709  2.38177e-07
     -2.12718  1.24791e-07
     -2.24726  6.35615e-08
     -2.36734  3.13432e-08
     -2.48742  1.48922e-08
     -2.60751  6.77027e-09
     -2.72759  2.91433e-09
     -2.84767  1.17615e-09
     -2.96775  4.36727e-10
     -3.08784  1.45289e-10
     -3.20792  4.11785e-11
       -3.328  8.84266e-12
     -3.44808  9.22711e-13
     -3.56817 -2.36144e-13
     -3.68825 -1.29803e-13
     -3.80833 -1.64989e-14

Well-to-bimolecular product energy distributions:
  E, kcal/mol       W0->P0       W0->P1
      11.9225   7.9553e-13  2.66605e-17
      11.8024  7.96816e-14  2.64165e-18
      11.6823  5.30598e-13  1.74007e-17
      11.5622  -7.7281e-14 -2.50689e-18
      11.4421  1.57551e-12  5.05502e-17
      11.3221  2.65146e-13  8.41396e-18
       11.202 -1.69732e-14  -5.3268e-19
      11.0819  8.10635e-13  2.51589e-17
      10.9618 -3.69024e-13 -1.13254e-17
      10.8417 -7.86973e-13 -2.38818e-17
      10.7217 -3.06068e-14 -9.18339e-19
      10.6016 -7.56956e-13 -2.24546e-17
      10.4815  7.10432e-13  2.08341e-17
      10.3614 -8.58369e-13 -2.48836e-17
      10.2413 -4.17581e-12 -1.19655e-16
      10.1212 -5.72984e-12 -1.62275e-16
      10.0012  9.02833e-13  2.52693e-17
      9.88107  4.62388e-13  1.27887e-17
      9.76099  2.15354e-12  5.88524e-17
      9.64091 -7.60224e-12 -2.05257e-16
      9.52083 -5.21134e-12 -1.38996e-16
      9.40074   6.7669e-12  1.78275e-16
      9.28066 -2.86656e-13 -7.45868e-18
      9.16058  1.48034e-11  3.80378e-16
       9.0405 -3.58075e-13 -9.08524e-18
      8.92041  3.72588e-11  9.33382e-16
      8.80033 -1.82816e-12 -4.52144e-17
      8.68025 -1.39286e-11 -3.40077e-16
      8.56017  6.35498e-13  1.53168e-17
      8.44008  3.93265e-11  9.35641e-16
         8.32 -2.84953e-12 -6.69202e-17
      8.19992  7.37087e-12  1.70866e-16
      8.07984  -3.2832e-11 -7.51244e-16
      7.95975 -2.23105e-11 -5.03897e-16
      7.83967 -5.10227e-11 -1.13748e-15
      7.71959 -1.85642e-11 -4.08519e-16
      7.59951  1.92425e-11  4.17983e-16
      7.47942 -1.77358e-11 -3.80294e-16
      7.35934 -2.21811e-11 -4.69498e-16
      7.23926 -6.79753e-11 -1.42038e-15
      7.11918 -7.89198e-11 -1.62803e-15
      6.99909 -6.69123e-11 -1.36279e-15
      6.87901 -5.53318e-11 -1.11268e-15
      6.75893  8.56204e-11  1.70007e-15
      6.63885 -9.65056e-11 -1.89214e-15
      6.51876  -2.2008e-10 -4.26085e-15
      6.39868  1.05232e-10  2.01176e-15
       6.2786 -2.37789e-10 -4.48862e-15
      6.15852 -1.41185e-10 -2.63134e-15
      6.03843  7.43231e-10  1.36752e-14
      5.91835 -1.69113e-10 -3.07156e-15
      5.79827   5.5366e-10  9.92497e-15
      5.67819  6.11974e-10  1.08255e-14
       5.5581 -3.19471e-10 -5.57557e-15
      5.43802  5.11103e-10  8.79869e-15
      5.31794 -1.67193e-09 -2.83847e-14
      5.19786 -6.60807e-11 -1.10612e-15
      5.07777  5.37639e-10  8.87148e-15
      4.95769 -6.47314e-10 -1.05273e-14
      4.83761  1.67454e-10  2.68357e-15
      4.71753  2.29348e-09  3.62119e-14
      4.59744 -8.65994e-10 -1.34693e-14
      4.47736 -7.86221e-10  -1.2045e-14
      4.35728  1.72797e-09  2.60746e-14
       4.2372  1.83094e-09  2.72139e-14
      4.11711  -1.1371e-09 -1.66492e-14
      3.99703  1.39366e-09  2.01051e-14
      3.87695  2.71931e-09  3.86635e-14
      3.75687 -4.80723e-09  -6.7397e-14
      3.63678  3.27625e-09  4.53259e-14
       3.5167   2.4342e-09  3.32649e-14
      3.39662  2.89368e-09    3.911e-14
      3.27654 -5.70616e-09 -7.63905e-14
      3.15645  2.57405e-09  3.41895e-14
      3.03637  1.10792e-08  1.46273e-13
      2.91629  1.44683e-08  1.90257e-13
      2.79621  2.80868e-08  3.68703e-13
      2.67612  9.97111e-08  1.31002e-12
      2.55604  2.57477e-07  3.39532e-12
      2.43596  7.87743e-07  1.04605e-11
      2.31588  2.28453e-06  3.06621e-11
      2.19579  6.46164e-06  8.80327e-11
      2.07571  1.77117e-05  2.46152e-10
      1.95563   4.6838e-05  6.67865e-10
      1.83555  0.000118736  1.74886e-09
      1.71546  0.000289827  4.44495e-09
      1.59538  0.000684077  1.10288e-08
       1.4753   0.00157133  2.69389e-08
      1.35522   0.00353348  6.53262e-08
      1.23513     0.007813  1.58485e-07
      1.11505    0.0170125  3.86956e-07
     0.994969    0.0364667  9.56297e-07
     0.874887    0.0766579  2.40379e-06
     0.754804     0.156804  6.17648e-06
     0.634722      0.30718  1.62876e-05
     0.514639     0.556899  4.40274e-05
     0.394557     0.870764  0.000120787
     0.274474            1  0.000325873
     0.154392     0.554866   0.00081795
    0.0343093    0.0148707   0.00184159
   -0.0857732            0   0.00393036
    -0.205856            0   0.00829795
    -0.325938            0    0.0172697
    -0.446021            0    0.0352366
    -0.566103            0    0.0698779
    -0.686186            0     0.132821
    -0.806268            0     0.238022
    -0.926351            0     0.394264
     -1.04643            0     0.591611
     -1.16652            0     0.792321
      -1.2866            0     0.942105
     -1.40668            0            1
     -1.52676            0     0.960743
     -1.64685            0     0.847474
     -1.76693            0     0.696156
     -1.88701            0     0.538864
     -2.00709            0     0.396432
     -2.12718            0     0.278957
     -2.24726            0     0.188357
     -2.36734            0     0.122252
     -2.48742            0    0.0762695
     -2.60751            0    0.0456724
     -2.72759            0    0.0261753
     -2.84767            0    0.0142843
     -2.96775            0   0.00737131
     -3.08784            0   0.00356088
     -3.20792            0   0.00158694
       -3.328            0  0.000638191
     -3.44808            0   0.00022344
     -3.56817            0  6.37449e-05
     -3.68825            0  1.29578e-05
     -3.80833            0  1.09067e-06

pressure[atm]        = 1
temperature[K]       = 200
energy step[1/cm]    = 42
maximum energy[1/cm] = 4170

Bimolecular-to-bimolecular product energy distributions:
  E, kcal/mol       P0->P1
      11.9225  8.36188e-09
      11.8024  1.06986e-08
      11.6823  1.36831e-08
      11.5622  1.74932e-08
      11.4421  2.23554e-08
      11.3221  2.85575e-08
       11.202  3.64653e-08
      11.0819  4.65436e-08
      10.9618  5.93823e-08
      10.8417  7.57301e-08
      10.7217  9.65363e-08
      10.6016  1.23004e-07
      10.4815  1.56659e-07
      10.3614  1.99432e-07
      10.2413  2.53764e-07
      10.1212  3.22747e-07
      10.0012  4.10287e-07
      9.88107  5.21317e-07
      9.76099  6.62069e-07
      9.64091  8.40401e-07
      9.52083  1.06622e-06
      9.40074  1.35202e-06
      9.28066  1.71352e-06
      9.16058  2.17049e-06
       9.0405  2.74781e-06
      8.92041   3.4767e-06
      8.80033  4.39636e-06
      8.68025  5.55595e-06
      8.56017  7.01707e-06
      8.44008  8.85681e-06
         8.32  1.11716e-05
      8.19992  1.40821e-05
      8.07984  1.77387e-05
      7.95975  2.23292e-05
      7.83967  2.80876e-05
      7.71959  3.53053e-05
      7.59951  4.43445e-05
      7.47942  5.56555e-05
      7.35934   6.9797e-05
      7.23926  8.74616e-05
      7.11918  0.000109507
      6.99909  0.000136994
      6.87901  0.000171233
      6.75893  0.000213842
      6.63885  0.000266816
      6.51876   0.00033261
      6.39868  0.000414246
       6.2786  0.000515431
      6.15852  0.000640716
      6.03843  0.000795674
      5.91835   0.00098712
      5.79827   0.00122338
      5.67819   0.00151459
       5.5581    0.0018731
      5.43802    0.0023139
      5.31794   0.00285518
      5.19786   0.00351891
      5.07777   0.00433161
      4.95769   0.00532521
      4.83761   0.00653806
      4.71753   0.00801608
      4.59744   0.00981409
      4.47736    0.0119973
      4.35728    0.0146428
       4.2372    0.0178419
      4.11711    0.0217017
      3.99703    0.0263479
      3.87695    0.0319261
      3.75687    0.0386048
      3.63678    0.0465771
       3.5167    0.0560625
      3.39662    0.0673089
      3.27654    0.0805937
      3.15645    0.0962247
      3.03637     0.114538
      2.91629     0.135897
      2.79621     0.160682
      2.67612     0.189288
      2.55604     0.222106
      2.43596      0.25951
      2.31588     0.301828
      2.19579     0.349315
      2.07571     0.402106
      1.95563     0.460169
      1.83555     0.523232
      1.71546     0.590701
      1.59538     0.661549
       1.4753     0.734177
      1.35522     0.806241
      1.23513     0.874416
      1.11505     0.934076
     0.994969     0.978852
     0.874887            1
     0.754804     0.985606
     0.634722     0.920016
     0.514639     0.785576
     0.394557     0.573285
     0.274474      0.31329
     0.154392     0.103506
    0.0343093    0.0280026
   -0.0857732    0.0164351
    -0.205856    0.0099709
    -0.325938   0.00611335
    -0.446021   0.00378747
    -0.566103   0.00236656
    -0.686186   0.00148551
    -0.806268  0.000931247
    -0.926351  0.000579538
     -1.04643  0.000356458
     -1.16652  0.000216163
      -1.2866  0.000129114
     -1.40668  7.59253e-05
     -1.52676  4.39017e-05
     -1.64685  2.49473e-05
     -1.76693  1.39156e-05
     -1.88701  7.60487e-06
     -2.00709  4.06335e-06
     -2.12718  2.11427e-06
     -2.24726  1.06824e-06
     -2.36734  5.21627e-07
     -2.48742   2.4479e-07
     -2.60751  1.09486e-07
     -2.72759  4.60789e-08
     -2.84767  1.80017e-08
     -2.96775  6.35578e-09
     -3.08784  1.93882e-09
     -3.20792  4.58252e-10
       -3.328  5.15038e-11
     -3.44808 -1.93375e-11
     -3.56817 -1.40991e-11
     -3.68825  -4.2711e-12
     -3.80833  -4.5519e-13

Well-to-bimolecular product energy distributions:
  E, kcal/mol       W0->P0       W0->P1
      11.9225  2.87114e-16  4.03371e-19
      11.8024  6.29887e-16  8.75422e-19
      11.6823  -7.0286e-16  -9.6629e-19
      11.5622  1.71964e-15   2.3385e-18
      11.4421  3.68651e-15  4.95853e-18
      11.3221 -8.13052e-17 -1.08161e-19
       11.202   1.7512e-15  2.30397e-18
      11.0819 -1.52038e-15 -1.97813e-18
      10.9618 -1.52882e-15 -1.96695e-18
      10.8417  4.35127e-15  5.53553e-18
      10.7217 -3.51788e-15  -4.4249e-18
      10.6016  9.85703e-15  1.22579e-17
      10.4815 -1.01592e-15 -1.24896e-18
      10.3614 -1.99054e-16 -2.41906e-19
      10.2413 -2.61387e-15 -3.13988e-18
      10.1212 -8.48778e-17 -1.00772e-19
      10.0012 -1.79486e-15 -2.10598e-18
      9.88107  1.66703e-14  1.93286e-17
      9.76099 -3.22832e-15  -3.6985e-18
      9.64091 -9.15447e-15 -1.03616e-17
      9.52083  2.73237e-14  3.05512e-17
      9.40074 -1.32597e-15 -1.46444e-18
      9.28066  1.52792e-14  1.66663e-17
      9.16058 -1.17225e-14 -1.26273e-17
       9.0405 -2.34563e-14 -2.49493e-17
      8.92041  7.80705e-16  8.19887e-19
      8.80033 -4.35093e-14  -4.5111e-17
      8.68025 -3.43936e-14 -3.52033e-17
      8.56017 -2.48771e-14 -2.51356e-17
      8.44008  3.14627e-14  3.13803e-17
         8.32  5.93254e-14  5.84065e-17
      8.19992 -3.34564e-14 -3.25126e-17
      8.07984 -5.25901e-14 -5.04458e-17
      7.95975  4.58518e-14  4.34136e-17
      7.83967  9.79904e-14  9.15802e-17
      7.71959  5.95104e-14  5.48992e-17
      7.59951 -3.22549e-14 -2.93718e-17
      7.47942  5.42538e-14   4.8768e-17
      7.35934 -1.24498e-14 -1.10471e-17
      7.23926   8.0528e-14  7.05401e-17
      7.11918  7.15308e-14  6.18594e-17
      6.99909 -5.10777e-14 -4.36105e-17
      6.87901  1.01621e-13  8.56673e-17
      6.75893  3.95128e-14  3.28901e-17
      6.63885  1.08389e-12  8.90883e-16
      6.51876   1.2986e-13  1.05397e-16
      6.39868  8.71771e-13  6.98661e-16
       6.2786  3.90744e-13  3.09208e-16
      6.15852  1.48144e-12  1.15747e-15
      6.03843 -7.01927e-13 -5.41426e-16
      5.91835  3.80456e-13  2.89683e-16
      5.79827  6.25862e-13  4.70329e-16
      5.67819 -1.29311e-12 -9.58931e-16
       5.5581 -1.10109e-12 -8.05598e-16
      5.43802 -3.63659e-13 -2.62446e-16
      5.31794  2.65325e-12  1.88834e-15
      5.19786  1.32727e-12  9.31373e-16
      5.07777 -2.12939e-12 -1.47298e-15
      4.95769 -3.59497e-12 -2.45094e-15
      4.83761 -4.19678e-12 -2.81949e-15
      4.71753  2.27915e-12  1.50857e-15
      4.59744  2.21451e-12  1.44392e-15
      4.47736  1.47709e-12  9.48651e-16
      4.35728  3.78563e-12  2.39473e-15
       4.2372 -4.08036e-12 -2.54245e-15
      4.11711  7.88176e-12  4.83787e-15
      3.99703  9.04193e-12  5.46825e-15
      3.87695  8.80526e-12  5.24832e-15
      3.75687  4.79429e-11  2.81778e-14
      3.63678  1.66492e-10  9.65602e-14
       3.5167  4.55267e-10  2.60815e-13
      3.39662  1.38048e-09  7.82177e-13
      3.27654  4.09048e-09  2.29566e-12
      3.15645  1.15897e-08  6.45336e-12
      3.03637  3.19067e-08  1.76593e-11
      2.91629   8.5337e-08  4.70431e-11
      2.79621  2.22471e-07  1.22429e-10
      2.67612  5.64778e-07  3.11063e-10
      2.55604   1.3987e-06  7.73219e-10
      2.43596  3.38188e-06  1.88261e-09
      2.31588  8.00145e-06  4.50205e-09
      2.19579  1.85708e-05  1.06064e-08
      2.07571   4.2416e-05  2.47122e-08
      1.95563  9.56676e-05  5.71863e-08
      1.83555  0.000213661  1.31927e-07
      1.71546  0.000473511  3.04435e-07
      1.59538   0.00104232  7.04473e-07
       1.4753   0.00227965   1.6384e-06
      1.35522     0.004953  3.83876e-06
      1.23513    0.0106821  9.08374e-06
      1.11505    0.0228085  2.17484e-05
     0.994969     0.048039  5.28112e-05
     0.874887    0.0991379  0.000130321
     0.754804     0.198294  0.000327438
     0.634722     0.376843  0.000837652
     0.514639     0.653775   0.00216676
     0.394557       0.9573   0.00556681
     0.274474            1    0.0136611
     0.154392     0.490888     0.030336
    0.0343093    0.0114447    0.0594165
   -0.0857732            0     0.107663
    -0.205856            0     0.185619
    -0.325938            0     0.301507
    -0.446021            0     0.456311
    -0.566103            0     0.636524
    -0.686186            0     0.811282
    -0.806268            0     0.942182
    -0.926351            0            1
     -1.04643            0     0.977637
     -1.16652            0     0.889848
      -1.2866            0     0.762477
     -1.40668            0     0.621156
     -1.52676            0     0.485075
     -1.64685            0     0.365141
     -1.76693            0     0.266002
     -1.88701            0     0.188019
     -2.00709            0     0.129115
     -2.12718            0    0.0861828
     -2.24726            0    0.0558764
     -2.36734            0    0.0351409
     -2.48742            0    0.0213897
     -2.60751            0    0.0125618
     -2.72759            0   0.00708801
     -2.84767            0   0.00382026
     -2.96775            0   0.00195177
     -3.08784            0  0.000935264
     -3.20792            0  0.000414087
       -3.328            0  0.000165635
     -3.44808            0  5.77401e-05
     -3.56817            0  1.64149e-05
     -3.68825            0  3.32729e-06
     -3.80833            0  2.79416e-07

pressure[atm]        = 2
temperature[K]       = 200
energy step[1/cm]    = 42
maximum energy[1/cm] = 4170

Bimolecular-to-bimolecular product energy distributions:
  E, kcal/mol       P0->P1
      11.9225  8.38607e-09
      11.8024  1.07296e-08
      11.6823  1.37226e-08
      11.5622  1.75438e-08
      11.4421    2.242e-08
      11.3221    2.864e-08
       11.202  3.65707e-08
      11.0819  4.66782e-08
      10.9618   5.9554e-08
      10.8417   7.5949e-08
      10.7217  9.68154e-08
      10.6016   1.2336e-07
      10.4815  1.57112e-07
      10.3614  2.00008e-07
      10.2413  2.54498e-07
      10.1212   3.2368e-07
      10.0012  4.11473e-07
      9.88107  5.22825e-07
      9.76099  6.63983e-07
      9.64091  8.42831e-07
      9.52083  1.06931e-06
      9.40074  1.35593e-06
      9.28066  1.71847e-06
      9.16058  2.17677e-06
       9.0405  2.75575e-06
      8.92041  3.48675e-06
      8.80033  4.40907e-06
      8.68025  5.57202e-06
      8.56017  7.03735e-06
      8.44008  8.88241e-06
         8.32  1.12039e-05
      8.19992  1.41228e-05
      8.07984    1.779e-05
      7.95975  2.23938e-05
      7.83967  2.81688e-05
      7.71959  3.54073e-05
      7.59951  4.44727e-05
      7.47942  5.58164e-05
      7.35934  6.99988e-05
      7.23926  8.77145e-05
      7.11918  0.000109823
      6.99909   0.00013739
      6.87901  0.000171728
      6.75893  0.000214461
      6.63885  0.000267588
      6.51876  0.000333572
      6.39868  0.000415443
       6.2786  0.000516921
      6.15852  0.000642569
      6.03843  0.000797975
      5.91835  0.000989974
      5.79827   0.00122691
      5.67819   0.00151896
       5.5581   0.00187851
      5.43802   0.00232059
      5.31794   0.00286344
      5.19786   0.00352909
