pressure[atm]        = 1
temperature[K]       = 200
energy step[1/cm]    = 14
maximum energy[1/cm] = 7362

Bimolecular-to-bimolecular product energy distributions:
  E, kcal/mol       P1->P2
      21.0487  5.02634e-15
      21.0087  5.48326e-15
      20.9687  5.98152e-15
      20.9287  6.52489e-15
      20.8886  7.11753e-15
      20.8486  7.76379e-15
      20.8086  8.46856e-15
      20.7686  9.23713e-15
      20.7285  1.00752e-14
      20.6885   1.0989e-14
      20.6485  1.19856e-14
      20.6084  1.30721e-14
      20.5684  1.42568e-14
      20.5284  1.55485e-14
      20.4884  1.69569e-14
      20.4483  1.84923e-14
      20.4083  2.01664e-14
      20.3683  2.19916e-14
      20.3283  2.39813e-14
      20.2882  2.61504e-14
      20.2482  2.85152e-14
      20.2082  3.10929e-14
      20.1681   3.3903e-14
      20.1281  3.69661e-14
      20.0881  4.03049e-14
      20.0481  4.39443e-14
       20.008  4.79112e-14
       19.968  5.22349e-14
       19.928  5.69474e-14
      19.8879  6.20835e-14
      19.8479  6.76814e-14
      19.8079   7.3782e-14
      19.7679  8.04306e-14
      19.7278  8.76762e-14
      19.6878  9.55721e-14
      19.6478  1.04177e-13
      19.6078  1.13553e-13
      19.5677   1.2377e-13
      19.5277  1.34903e-13
      19.4877  1.47033e-13
      19.4476   1.6025e-13
      19.4076  1.74651e-13
      19.3676  1.90342e-13
      19.3276  2.07436e-13
      19.2875   2.2606e-13
      19.2475  2.46349e-13
      19.2075  2.68453e-13
      19.1675  2.92532e-13
      19.1274  3.18763e-13
      19.0874  3.47337e-13
      19.0474  3.78462e-13
      19.0073  4.12365e-13
      18.9673  4.49293e-13
      18.9273  4.89515e-13
      18.8873  5.33324e-13
      18.8472  5.81038e-13
      18.8072  6.33003e-13
      18.7672  6.89597e-13
      18.7272  7.51231e-13
      18.6871   8.1835e-13
      18.6471  8.91442e-13
      18.6071  9.71035e-13
       18.567  1.05771e-12
       18.527  1.15208e-12
       18.487  1.25484e-12
       18.447  1.36673e-12
      18.4069  1.48855e-12
      18.3669  1.62118e-12
      18.3269  1.76559e-12
      18.2868   1.9228e-12
      18.2468  2.09395e-12
      18.2068  2.28026e-12
      18.1668  2.48309e-12
      18.1267  2.70387e-12
      18.0867   2.9442e-12
      18.0467   3.2058e-12
      18.0067  3.49054e-12
      17.9666  3.80047e-12
      17.9266  4.13778e-12
      17.8866   4.5049e-12
      17.8465  4.90445e-12
      17.8065  5.33928e-12
      17.7665  5.81248e-12
      17.7265  6.32743e-12
      17.6864  6.88779e-12
      17.6464  7.49756e-12
      17.6064  8.16105e-12
      17.5664  8.88299e-12
      17.5263   9.6685e-12
      17.4863  1.05231e-11
      17.4463   1.1453e-11
      17.4062  1.24646e-11
      17.3662  1.35651e-11
      17.3262  1.47624e-11
      17.2862  1.60648e-11
      17.2461  1.74815e-11
      17.2061  1.90226e-11
      17.1661  2.06989e-11
      17.1261  2.25222e-11
       17.086  2.45053e-11
       17.046  2.66622e-11
       17.006  2.90079e-11
      16.9659  3.15591e-11
      16.9259  3.43334e-11
      16.8859  3.73504e-11
      16.8459  4.06312e-11
      16.8058  4.41987e-11
      16.7658  4.80779e-11
      16.7258  5.22957e-11
      16.6857  5.68817e-11
      16.6457  6.18677e-11
      16.6057  6.72885e-11
      16.5657  7.31818e-11
      16.5256  7.95885e-11
      16.4856  8.65531e-11
      16.4456  9.41239e-11
      16.4056  1.02353e-10
      16.3655  1.11298e-10
      16.3255  1.21021e-10
      16.2855  1.31588e-10
      16.2454  1.43073e-10
      16.2054  1.55555e-10
      16.1654  1.69119e-10
      16.1254   1.8386e-10
      16.0853  1.99879e-10
      16.0453  2.17285e-10
      16.0053  2.36198e-10
      15.9653  2.56748e-10
      15.9252  2.79076e-10
      15.8852  3.03334e-10
      15.8452  3.29688e-10
      15.8051  3.58319e-10
      15.7651  3.89421e-10
      15.7251  4.23207e-10
      15.6851  4.59907e-10
       15.645   4.9977e-10
       15.605  5.43067e-10
       15.565  5.90093e-10
       15.525  6.41165e-10
      15.4849  6.96631e-10
      15.4449  7.56864e-10
      15.4049  8.22274e-10
      15.3648    8.933e-10
      15.3248  9.70423e-10
      15.2848  1.05416e-09
      15.2448  1.14508e-09
      15.2047  1.24379e-09
      15.1647  1.35095e-09
      15.1247  1.46729e-09
      15.0846  1.59357e-09
      15.0446  1.73066e-09
      15.0046  1.87946e-09
      14.9646  2.04096e-09
      14.9245  2.21626e-09
      14.8845   2.4065e-09
      14.8445  2.61296e-09
      14.8045  2.83702e-09
      14.7644  3.08015e-09
      14.7244  3.34398e-09
      14.6844  3.63024e-09
      14.6443  3.94084e-09
      14.6043  4.27783e-09
      14.5643  4.64342e-09
      14.5243  5.04004e-09
      14.4842  5.47029e-09
      14.4442    5.937e-09
      14.4042  6.44323e-09
      14.3642  6.99232e-09
      14.3241  7.58785e-09
      14.2841  8.23372e-09
      14.2441  8.93416e-09
       14.204  9.69374e-09
       14.164  1.05174e-08
       14.124  1.14105e-08
       14.084  1.23789e-08
      14.0439  1.34288e-08
      14.0039  1.45671e-08
      13.9639  1.58011e-08
      13.9239  1.71388e-08
      13.8838  1.85889e-08
      13.8438  2.01607e-08
      13.8038  2.18644e-08
      13.7637  2.37108e-08
      13.7237  2.57119e-08
      13.6837  2.78805e-08
      13.6437  3.02306e-08
      13.6036   3.2777e-08
      13.5636  3.55362e-08
      13.5236  3.85257e-08
      13.4835  4.17646e-08
      13.4435  4.52735e-08
      13.4035  4.90746e-08
      13.3635  5.31922e-08
      13.3234  5.76522e-08
      13.2834   6.2483e-08
      13.2434  6.77149e-08
      13.2034  7.33811e-08
      13.1633  7.95172e-08
      13.1233  8.61619e-08
      13.0833  9.33567e-08
      13.0432  1.01147e-07
      13.0032  1.09581e-07
      12.9632  1.18712e-07
      12.9232  1.28597e-07
      12.8831  1.39297e-07
      12.8431   1.5088e-07
      12.8031  1.63416e-07
      12.7631  1.76983e-07
       12.723  1.91667e-07
       12.683  2.07556e-07
       12.643   2.2475e-07
      12.6029  2.43354e-07
      12.5629  2.63483e-07
      12.5229  2.85259e-07
      12.4829  3.08817e-07
      12.4428  3.34301e-07
      12.4028  3.61866e-07
      12.3628   3.9168e-07
      12.3228  4.23925e-07
      12.2827  4.58796e-07
      12.2427  4.96504e-07
      12.2027  5.37278e-07
      12.1626  5.81364e-07
      12.1226  6.29027e-07
      12.0826  6.80554e-07
      12.0426  7.36255e-07
      12.0025  7.96463e-07
      11.9625  8.61537e-07
      11.9225  9.31867e-07
      11.8824  1.00787e-06
      11.8424     1.09e-06
      11.8024  1.17874e-06
      11.7624  1.27462e-06
      11.7223   1.3782e-06
      11.6823   1.4901e-06
      11.6423  1.61097e-06
      11.6023  1.74152e-06
      11.5622  1.88251e-06
      11.5222  2.03478e-06
      11.4822   2.1992e-06
      11.4421  2.37673e-06
      11.4021   2.5684e-06
      11.3621  2.77532e-06
      11.3221  2.99869e-06
       11.282  3.23979e-06
       11.242  3.50001e-06
       11.202  3.78084e-06
       11.162  4.08388e-06
      11.1219  4.41087e-06
      11.0819  4.76366e-06
      11.0419  5.14426e-06
      11.0018  5.55483e-06
      10.9618  5.99768e-06
      10.9218  6.47531e-06
      10.8818   6.9904e-06
      10.8417  7.54584e-06
      10.8017  8.14474e-06
      10.7617  8.79043e-06
      10.7217  9.48651e-06
      10.6816  1.02368e-05
      10.6416  1.10456e-05
      10.6016  1.19172e-05
      10.5615  1.28564e-05
      10.5215  1.38685e-05
      10.4815  1.49589e-05
      10.4415  1.61336e-05
      10.4014   1.7399e-05
      10.3614   1.8762e-05
      10.3214  2.02299e-05
      10.2813  2.18107e-05
      10.2413  2.35129e-05
      10.2013  2.53455e-05
      10.1613  2.73185e-05
      10.1212  2.94422e-05
      10.0812  3.17281e-05
      10.0412  3.41882e-05
      10.0012  3.68356e-05
      9.96113  3.96842e-05
       9.9211  4.27489e-05
      9.88107  4.60458e-05
      9.84105  4.95922e-05
      9.80102  5.34064e-05
      9.76099  5.75083e-05
      9.72096  6.19191e-05
      9.68094  6.66614e-05
      9.64091  7.17598e-05
      9.60088  7.72402e-05
      9.56085  8.31306e-05
      9.52083   8.9461e-05
       9.4808  9.62635e-05
      9.44077  0.000103572
      9.40074  0.000111424
      9.36072  0.000119859
      9.32069  0.000128918
      9.28066  0.000138647
      9.24063  0.000149094
      9.20061  0.000160311
      9.16058  0.000172352
      9.12055  0.000185278
      9.08052   0.00019915
       9.0405  0.000214036
      9.00047  0.000230009
      8.96044  0.000247145
      8.92041  0.000265527
      8.88039  0.000285242
      8.84036  0.000306385
      8.80033  0.000329054
       8.7603  0.000353359
      8.72028  0.000379411
      8.68025  0.000407333
      8.64022  0.000437255
      8.60019  0.000469315
      8.56017  0.000503661
      8.52014  0.000540449
      8.48011  0.000579847
      8.44008  0.000622033
      8.40006  0.000667197
      8.36003  0.000715542
         8.32  0.000767281
      8.27997  0.000822645
      8.23995  0.000881876
      8.19992  0.000945233
      8.15989   0.00101299
      8.11986   0.00108544
      8.07984   0.00116289
      8.03981   0.00124568
      7.99978   0.00133415
      7.95975   0.00142867
      7.91973   0.00152963
       7.8797   0.00163746
      7.83967   0.00175259
      7.79964   0.00187549
      7.75962   0.00200666
      7.71959   0.00214662
      7.67956   0.00229592
      7.63953   0.00245515
      7.59951   0.00262494
      7.55948   0.00280593
      7.51945   0.00299882
      7.47942   0.00320433
       7.4394   0.00342323
      7.39937   0.00365635
      7.35934   0.00390452
      7.31931   0.00416865
      7.27929    0.0044497
      7.23926   0.00474864
      7.19923   0.00506655
       7.1592   0.00540451
      7.11918   0.00576368
      7.07915   0.00614529
      7.03912   0.00655059
      6.99909   0.00698094
      6.95907   0.00743773
      6.91904   0.00792243
      6.87901   0.00843657
      6.83898   0.00898175
      6.79896   0.00955966
      6.75893     0.010172
       6.7189    0.0108207
      6.67887    0.0115076
      6.63885    0.0122347
      6.59882    0.0130041
      6.55879    0.0138179
      6.51876    0.0146783
      6.47874    0.0155877
      6.43871    0.0165485
      6.39868    0.0175632
      6.35865    0.0186344
      6.31863    0.0197648
       6.2786    0.0209572
      6.23857    0.0222143
      6.19854    0.0235393
      6.15852    0.0249352
      6.11849    0.0264051
      6.07846    0.0279523
      6.03843    0.0295801
      5.99841    0.0312919
      5.95838    0.0330914
      5.91835    0.0349821
      5.87832    0.0369678
       5.8383    0.0390522
      5.79827    0.0412392
      5.75824    0.0435329
      5.71821    0.0459372
      5.67819    0.0484564
      5.63816    0.0510945
      5.59813     0.053856
       5.5581    0.0567451
      5.51808    0.0597663
      5.47805     0.062924
      5.43802    0.0662227
      5.39799    0.0696671
      5.35797    0.0732617
      5.31794    0.0770112
      5.27791    0.0809203
      5.23788    0.0849937
      5.19786    0.0892361
      5.15783    0.0936523
       5.1178    0.0982469
      5.07777     0.103025
      5.03775     0.107991
      4.99772     0.113149
      4.95769     0.118505
      4.91766     0.124063
      4.87764     0.129827
      4.83761     0.135803
      4.79758     0.141994
      4.75755     0.148406
      4.71753     0.155041
       4.6775     0.161905
      4.63747     0.169002
      4.59744     0.176336
      4.55742      0.18391
      4.51739     0.191728
      4.47736     0.199793
      4.43733      0.20811
      4.39731      0.21668
      4.35728     0.225507
      4.31725     0.234594
      4.27722     0.243943
       4.2372     0.253555
      4.19717     0.263434
      4.15714     0.273579
      4.11711     0.283993
      4.07709     0.294676
      4.03706     0.305628
      3.99703      0.31685
        3.957     0.328341
      3.91698       0.3401
      3.87695     0.352125
      3.83692     0.364414
      3.79689     0.376965
      3.75687     0.389775
      3.71684     0.402838
      3.67681     0.416152
      3.63678      0.42971
      3.59676     0.443507
      3.55673     0.457535
       3.5167     0.471787
      3.47667     0.486255
      3.43665     0.500929
      3.39662     0.515798
      3.35659     0.530851
      3.31656     0.546074
      3.27654     0.561453
      3.23651     0.576973
      3.19648     0.592618
      3.15645     0.608371
      3.11643     0.624212
       3.0764     0.640123
      3.03637     0.656082
      2.99634     0.672068
      2.95632     0.688057
      2.91629     0.704023
      2.87626      0.71994
      2.83623      0.73578
      2.79621     0.751515
      2.75618     0.767114
      2.71615     0.782545
      2.67612     0.797772
       2.6361     0.812761
      2.59607     0.827478
      2.55604     0.841886
      2.51601     0.855948
      2.47599     0.869626
      2.43596     0.882881
      2.39593     0.895672
       2.3559     0.907958
      2.31588     0.919696
      2.27585     0.930842
      2.23582     0.941343
      2.19579     0.951147
      2.15577     0.960209
      2.11574     0.968482
      2.07571     0.975918
      2.03568     0.982465
      1.99566     0.988057
      1.95563     0.992645
       1.9156     0.996182
      1.87557     0.998621
      1.83555     0.999917
      1.79552            1
      1.75549     0.998809
      1.71546     0.996307
      1.67544      0.99246
      1.63541     0.987238
      1.59538     0.980619
      1.55535     0.972583
      1.51533     0.963117
       1.4753     0.952217
      1.43527     0.939882
      1.39524     0.926122
      1.35522     0.910953
      1.31519     0.894397
      1.27516     0.876485
      1.23513     0.857253
      1.19511     0.836741
      1.15508     0.814983
      1.11505     0.791954
      1.07502     0.767527
        1.035     0.741745
     0.994969     0.714673
     0.954942     0.686376
     0.914914     0.656891
     0.874887     0.626019
     0.834859     0.593695
     0.794832     0.560038
     0.754804     0.525186
     0.714777     0.489303
     0.674749     0.452574
     0.634722     0.415211
     0.594694     0.377451
     0.554667      0.33956
     0.514639     0.301832
     0.474612     0.264589
     0.434584     0.228181
     0.394557     0.192987
     0.354529      0.15941
     0.314502     0.127878
     0.274474    0.0988363
     0.234447    0.0727405
     0.194419    0.0500472
     0.154392    0.0311965
     0.114364    0.0165855
    0.0743368   0.00652372
    0.0343093   0.00114132

Well-to-bimolecular product energy distributions:
  E, kcal/mol       W1->P1       W1->P2
      21.0487  9.22827e-18  2.39383e-13
      21.0087 -2.77814e-18 -7.17663e-14
      20.9687 -1.16052e-17 -2.98545e-13
      20.9287   5.9667e-17  1.52853e-12
      20.8886 -2.16452e-18 -5.52184e-14
      20.8486 -2.04543e-18 -5.19616e-14
      20.8086  4.01035e-17   1.0145e-12
      20.7686  3.86423e-18  9.73416e-14
      20.7285  1.77615e-17  4.45531e-13
      20.6885 -9.62652e-18  -2.4045e-13
      20.6485  4.02903e-17   1.0021e-12
      20.6084  1.27521e-17  3.15821e-13
      20.5684 -1.69303e-18 -4.17511e-14
      20.5284  1.39392e-17  3.42281e-13
      20.4884  -9.5631e-18 -2.33819e-13
      20.4483 -2.92607e-18 -7.12356e-14
      20.4083 -1.24841e-16 -3.02621e-12
      20.3683 -2.05664e-17  -4.9639e-13
      20.3283 -1.52726e-17 -3.67027e-13
      20.2882  3.20813e-17  7.67631e-13
      20.2482  -4.2554e-17  -1.0138e-12
      20.2082 -1.93949e-17 -4.60055e-13
      20.1681  8.00726e-17  1.89108e-12
      20.1281 -1.63735e-17 -3.85006e-13
      20.0881 -3.45463e-18  -8.0877e-14
      20.0481  8.02612e-17  1.87077e-12
       20.008 -3.53376e-17 -8.20051e-13
       19.968  9.38401e-17  2.16809e-12
       19.928 -9.40746e-17 -2.16392e-12
      19.8879 -6.07984e-17 -1.39231e-12
      19.8479  5.15384e-17  1.17502e-12
      19.8079  7.84393e-17  1.78039e-12
      19.7679 -2.65406e-17 -5.99729e-13
      19.7278  3.17315e-17  7.13828e-13
      19.6878 -2.36676e-17 -5.30042e-13
      19.6478  1.91641e-17   4.2726e-13
      19.6078  5.97087e-17  1.32522e-12
      19.5677 -5.21113e-17 -1.15138e-12
      19.5277 -1.30742e-17 -2.87568e-13
      19.4877 -6.92296e-17 -1.51581e-12
      19.4476 -2.23166e-16 -4.86415e-12
      19.4076  2.08972e-16  4.53406e-12
      19.3676  7.46063e-17  1.61136e-12
      19.3276 -1.86854e-16 -4.01725e-12
      19.2875 -7.96681e-17 -1.70497e-12
      19.2475  2.28117e-16  4.85948e-12
      19.2075 -1.17586e-16 -2.49336e-12
      19.1675  3.93014e-16  8.29519e-12
      19.1274 -2.49726e-16 -5.24647e-12
      19.0874 -1.08866e-16 -2.27655e-12
      19.0474 -2.02392e-16 -4.21261e-12
      19.0073  2.42535e-16  5.02457e-12
      18.9673 -4.27702e-17 -8.81921e-13
      18.9273  6.28882e-17  1.29067e-12
      18.8873  4.03741e-16  8.24712e-12
      18.8472  2.18705e-16  4.44637e-12
      18.8072  -2.5585e-17 -5.17697e-13
      18.7672 -7.51376e-17 -1.51316e-12
      18.7272  2.00433e-17  4.01724e-13
      18.6871 -3.32072e-16 -6.62398e-12
      18.6471 -1.48871e-16 -2.95541e-12
      18.6071 -9.14833e-17 -1.80745e-12
       18.567  1.90601e-16  3.74768e-12
       18.527 -1.44639e-16 -2.83028e-12
       18.487 -3.81989e-16 -7.43868e-12
       18.447 -2.89955e-17 -5.61916e-13
      18.4069  4.67912e-16   9.0239e-12
      18.3669 -3.96857e-16 -7.61639e-12
      18.3269  4.46799e-16  8.53308e-12
      18.2868 -4.42477e-16 -8.40926e-12
      18.2468  5.41033e-16  1.02319e-11
      18.2068  7.41122e-16  1.39471e-11
      18.1668 -3.73056e-16  -6.9859e-12
      18.1267 -3.08737e-16 -5.75288e-12
      18.0867  1.02723e-15  1.90461e-11
      18.0467  9.84643e-16  1.81658e-11
      18.0067  2.21051e-16  4.05787e-12
      17.9666 -1.95675e-15 -3.57407e-11
      17.9266 -2.09268e-15 -3.80319e-11
      17.8866 -1.26671e-16 -2.29052e-12
      17.8465  -1.7058e-15 -3.06893e-11
      17.8065  1.27423e-15  2.28089e-11
      17.7665   4.4767e-16   7.9727e-12
      17.7265   1.0466e-15  1.85444e-11
      17.6864   9.2927e-16  1.63813e-11
      17.6464 -1.08415e-15 -1.90137e-11
      17.6064 -1.50674e-15  -2.6289e-11
      17.5664  1.43681e-15  2.49396e-11
      17.5263  1.56558e-15  2.70342e-11
      17.4863 -4.29427e-16 -7.37678e-12
      17.4463  9.54537e-16  1.63118e-11
      17.4062  1.11228e-15   1.8908e-11
      17.3662  4.59512e-16  7.77042e-12
      17.3262 -9.44298e-16 -1.58842e-11
      17.2862  3.32601e-16   5.5652e-12
      17.2461  1.37093e-15  2.28174e-11
      17.2061 -1.36241e-15 -2.25551e-11
      17.1661 -5.15983e-18  -8.4967e-14
      17.1261 -4.74955e-15 -7.77927e-11
       17.086   4.2693e-15  6.95517e-11
       17.046 -1.96619e-15 -3.18591e-11
       17.006 -6.88705e-16 -1.10992e-11
      16.9659 -1.87513e-16 -3.00561e-12
      16.9259  1.75204e-15  2.79308e-11
      16.8859  8.97103e-16  1.42237e-11
      16.8459  2.52815e-15  3.98655e-11
      16.8058 -2.43401e-15  -3.8171e-11
      16.7658  4.27164e-16  6.66217e-12
      16.7258  2.54637e-15  3.94954e-11
      16.6857 -1.39866e-15 -2.15741e-11
      16.6457  2.93188e-15  4.49737e-11
      16.6057 -2.28403e-15 -3.48416e-11
      16.5657   5.2497e-15  7.96355e-11
      16.5256  7.88917e-15  1.19007e-10
      16.4856  -7.3073e-15 -1.09613e-10
      16.4456 -3.01532e-15 -4.49774e-11
      16.4056 -5.47447e-15 -8.11993e-11
      16.3655  9.24868e-15  1.36406e-10
      16.3255    5.004e-16  7.33845e-12
      16.2855  2.42489e-15  3.53596e-11
      16.2454 -4.12755e-15  -5.9845e-11
      16.2054  4.66265e-16  6.72174e-12
      16.1654  -2.4262e-16 -3.47761e-12
      16.1254 -3.13389e-16 -4.46618e-12
      16.0853  9.56628e-16  1.35546e-11
      16.0453  5.73759e-15  8.08268e-11
      16.0053  6.74228e-15  9.44296e-11
      15.9653 -1.19576e-14   -1.665e-10
      15.9252  2.07366e-14  2.87055e-10
      15.8852 -5.43077e-15 -7.47378e-11
      15.8452  1.05669e-14  1.44568e-10
      15.8051 -1.29054e-14  -1.7552e-10
      15.7651  5.11371e-15  6.91382e-11
      15.7251  5.14795e-16  6.91888e-12
      15.6851   1.3157e-15   1.7578e-11
       15.645   6.0297e-15  8.00773e-11
       15.605 -1.62541e-14 -2.14571e-10
