Temperature = 1000K
THERMAL DISTRIBUTIONS:
  E, kcal/mol           W1
      63.5751   0.00179537
       63.475   0.00188024
       63.375   0.00196934
      63.2749   0.00206274
      63.1748   0.00216047
      63.0748   0.00226283
      62.9747   0.00236999
      62.8746   0.00248209
      62.7746   0.00259966
      62.6745   0.00272263
      62.5744   0.00285159
      62.4743   0.00298664
      62.3743   0.00312786
      62.2742    0.0032758
      62.1741    0.0034305
      62.0741   0.00359288
       61.974   0.00376277
      61.8739    0.0039407
      61.7739   0.00412718
      61.6738   0.00432249
      61.5737   0.00452696
      61.4737   0.00474091
      61.3736   0.00496463
      61.2735   0.00519895
      61.1735   0.00544391
      61.0734   0.00570138
      60.9733   0.00597114
      60.8732   0.00625366
      60.7732   0.00654935
      60.6731   0.00685879
       60.573   0.00718253
       60.473   0.00752129
      60.3729   0.00787649
      60.2728   0.00824819
      60.1728   0.00863822
      60.0727   0.00904623
      59.9726   0.00947306
      59.8726   0.00992023
      59.7725    0.0103882
      59.6724    0.0108779
      59.5724    0.0113917
      59.4723    0.0119295
      59.3722    0.0124935
      59.2721    0.0130825
      59.1721    0.0136983
       59.072    0.0143435
      58.9719    0.0150179
      58.8719    0.0157258
      58.7718    0.0164671
      58.6717     0.017244
      58.5717    0.0180566
      58.4716    0.0189076
      58.3715    0.0197984
      58.2715    0.0207305
      58.1714    0.0217053
      58.0713    0.0227264
      57.9713    0.0237953
      57.8712    0.0249181
      57.7711    0.0260915
       57.671    0.0273213
       57.571    0.0286078
      57.4709    0.0299539
      57.3708    0.0313624
      57.2708    0.0328366
      57.1707    0.0343848
      57.0706    0.0360033
      56.9706    0.0376976
      56.8705    0.0394695
      56.7704    0.0413221
      56.6704    0.0432645
      56.5703    0.0452963
      56.4702    0.0474233
      56.3702    0.0496574
      56.2701    0.0519905
        56.17    0.0544371
      56.0699    0.0569913
      55.9699    0.0596606
      55.8698    0.0624579
      55.7697    0.0653806
      55.6697    0.0684514
      55.5696    0.0716708
      55.4695     0.075036
      55.3695    0.0785566
      55.2694    0.0822426
      55.1693    0.0861012
      55.0693    0.0901368
      54.9692     0.094363
      54.8691    0.0987941
      54.7691      0.10343
       54.669     0.108286
      54.5689      0.11336
      54.4688     0.118678
      54.3688     0.124239
      54.2687     0.130058
      54.1686     0.136149
      54.0686     0.142532
      53.9685     0.149221
      53.8684     0.156209
      53.7684     0.163525
      53.6683     0.171173
      53.5682     0.179169
      53.4682     0.187555
      53.3681     0.196324
       53.268     0.205529
       53.168     0.215167
      53.0679      0.22523
      52.9678     0.235784
      52.8677     0.246797
      52.7677     0.258307
      52.6676      0.27038
      52.5675      0.28301
      52.4675     0.296277
      52.3674     0.310141
      52.2673     0.324624
      52.1673     0.339789
      52.0672     0.355658
      51.9671     0.372274
      51.8671     0.389661
       51.767     0.407906
      51.6669     0.427006
      51.5669      0.44694
      51.4668     0.467805
      51.3667     0.489605
      51.2666     0.512456
      51.1666      0.53635
      51.0665     0.561351
      50.9664     0.587579
      50.8664     0.614967
      50.7663     0.643671
      50.6662     0.673648
      50.5662     0.705026
      50.4661     0.737824
       50.366     0.772116
       50.266     0.808095
      50.1659     0.845798
      50.0658     0.885247
      49.9658     0.926543
      49.8657     0.969664
      49.7656      1.01489
      49.6655      1.06207
      49.5655      1.11138
      49.4654      1.16329
      49.3653      1.21745
      49.2653      1.27425
      49.1652      1.33351
      49.0651      1.39543
      48.9651      1.46024
       48.865      1.52807
      48.7649      1.59911
      48.6649      1.67363
      48.5648      1.75155
      48.4647       1.8331
      48.3647      1.91817
      48.2646      2.00718
      48.1645       2.1002
      48.0644      2.19773
      47.9644      2.29972
      47.8643      2.40664
      47.7642      2.51852
      47.6642      2.63521
      47.5641      2.75758
       47.464      2.88532
       47.364      3.01907
      47.2639       3.1589
      47.1638      3.30553
      47.0638      3.45903
      46.9637      3.61957
      46.8636      3.78733
      46.7636      3.96281
      46.6635      4.14624
      46.5634      4.33854
      46.4633      4.53914
      46.3633      4.74932
      46.2632      4.96978
      46.1631      5.19964
      46.0631      5.44074
       45.963      5.69213
      45.8629       5.9548
      45.7629      6.22976
      45.6628       6.5176
      45.5627       6.8197
      45.4627      7.13585
      45.3626      7.46602
      45.2625      7.81152
      45.1625      8.17173
      45.0624      8.54831
      44.9623      8.94247
      44.8622       9.3558
      44.7622      9.78862
      44.6621      10.2417
       44.562      10.7149
       44.462      11.2083
      44.3619      11.7262
      44.2618      12.2665
      44.1618      12.8328
      44.0617      13.4264
      43.9616      14.0478
      43.8616       14.697
      43.7615      15.3744
      43.6614      16.0821
      43.5614      16.8225
      43.4613      17.5962
      43.3612      18.4079
      43.2611      19.2559
      43.1611      20.1425
       43.061      21.0712
      42.9609      22.0389
      42.8609      23.0542
      42.7608      24.1119
      42.6607       25.218
      42.5607      26.3759
      42.4606      27.5903
      42.3605      28.8634
      42.2605       30.193
      42.1604      31.5815
      42.0603      33.0344
      41.9603      34.5489
      41.8602      36.1332
      41.7601      37.7964
        41.66      39.5382
        41.56       41.358
      41.4599      43.2578
      41.3598      45.2416
      41.2598      47.3069
      41.1597        49.48
      41.0596      51.7454
      40.9596       54.125
      40.8595      56.6144
      40.7594      59.2151
      40.6594      61.9309
      40.5593      64.7625
      40.4592      67.7207
      40.3592       70.817
      40.2591      74.0528
       40.159      77.4551
      40.0589      81.0026
      39.9589      84.7016
      39.8588      88.5765
      39.7587      92.6112
      39.6587      96.8469
      39.5586      101.251
      39.4585       105.87
      39.3585      110.709
      39.2584      115.781
      39.1583      121.083
      39.0583      126.619
      38.9582      132.399
      38.8581      138.449
      38.7581      144.754
       38.658      151.364
      38.5579      158.293
      38.4578      165.531
      38.3578      173.091
      38.2577       180.98
      38.1576      189.215
      38.0576      197.787
      37.9575      206.818
      37.8574      216.247
      37.7574      226.145
      37.6573      236.466
      37.5572      247.246
      37.4572      258.499
      37.3571      270.225
       37.257      282.477
       37.157      295.317
      37.0569      308.757
      36.9568       322.89
      36.8567      337.565
      36.7567      352.862
      36.6566      368.894
      36.5565      385.583
      36.4565      403.132
      36.3564      421.419
      36.2563      440.599
      36.1563      460.633
      36.0562       481.55
      35.9561      503.414
      35.8561      526.228
       35.756      550.064
      35.6559      575.016
      35.5559      601.066
      35.4558      628.352
      35.3557      656.852
      35.2556      686.618
      35.1556      717.696
      35.0555      750.109
      34.9554      783.936
      34.8554      819.163
      34.7553       856.39
      34.6552      895.225
      34.5552       935.84
      34.4551      978.157
       34.355      1022.34
       34.255      1068.46
      34.1549      1116.47
      34.0548      1166.63
      33.9548      1219.46
      33.8547       1274.7
      33.7546      1332.53
      33.6545       1392.5
      33.5545         1455
      33.4544      1520.53
      33.3543      1588.74
      33.2543      1660.73
      33.1542       1735.6
      33.0541      1813.81
      32.9541      1895.48
       32.854      1980.71
      32.7539      2069.81
      32.6539      2162.75
      32.5538      2259.98
      32.4537      2361.98
      32.3537      2468.42
      32.2536      2579.32
      32.1535      2695.13
      32.0534      2816.05
      31.9534      2942.29
      31.8533      3073.91
      31.7532      3211.27
      31.6532      3354.72
      31.5531      3506.63
       31.453      3664.03
       31.353      3828.68
      31.2529      4000.11
      31.1528      4179.14
      31.0528      4366.05
      30.9527      4560.94
      30.8526      4764.56
      30.7526      4978.02
      30.6525      5201.23
      30.5524      5434.96
      30.4523      5676.91
      30.3523      5929.11
      30.2522      6193.88
      30.1521      6470.02
      30.0521      6762.04
       29.952      7063.41
      29.8519      7378.11
      29.7519      7706.69
      29.6518      8049.54
      29.5517      8408.09
      29.4517      8782.23
      29.3516      9175.08
      29.2515      9587.68
      29.1515      10014.9
      29.0514      10459.5
      28.9513      10923.9
      28.8512      11408.7
      28.7512        11915
      28.6511      12442.8
       28.551      12994.1
       28.451      13573.4
      28.3509      14181.9
      28.2508      14811.2
      28.1508      15469.9
      28.0507      16155.5
      27.9506      16871.9
      27.8506        17622
      27.7505      18403.8
      27.6504      19214.9
      27.5504      20065.2
      27.4503      20954.7
      27.3502      21886.5
      27.2501      22849.4
      27.1501      23854.2
        27.05        24913
      26.9499      26018.9
      26.8499      27180.5
      26.7498      28375.7
      26.6497      29623.7
      26.5497        30927
      26.4496        32287
      26.3495      33711.2
      26.2495      35200.5
      26.1494      36773.4
      26.0493      38408.1
      25.9493      40097.3
      25.8492      41854.4
      25.7491      43689.9
       25.649      45608.6
       25.549      47618.3
      25.4489      49714.7
      25.3488      51884.5
      25.2488      54166.3
      25.1487      56565.8
      25.0486      59042.7
      24.9486      61638.3
      24.8485      64339.7
      24.7484      67172.7
      24.6484      70148.1
      24.5483      73207.1
      24.4482      76382.8
      24.3482      79711.6
      24.2481      83196.2
       24.148      86849.2
      24.0479      90618.2
      23.9479      94565.8
      23.8478      98747.9
      23.7477       103059
      23.6477       107592
      23.5476       112235
      23.4475       117082
      23.3475       122142
      23.2474       127420
      23.1473       132951
      23.0473       138723
      22.9472       144874
      22.8471       151238
      22.7471       157801
       22.647       164625
      22.5469       171766
      22.4468       179262
      22.3468       187152
      22.2467       195254
      22.1466       203639
      22.0466       212469
      21.9465       221773
      21.8464       231357
      21.7464       241431
      21.6463       251945
      21.5462       263048
      21.4462       274538
      21.3461       286255
       21.246       298499
       21.146       311307
      21.0459       324740
      20.9458       338853
      20.8457       353428
      20.7457       368840
      20.6456       384924
      20.5455       401458
      20.4455       418875
      20.3454       436640
      20.2453       455219
      20.1453       474705
      20.0452       495130
      19.9451       516179
      19.8451       538184
       19.745       561756
      19.6449       586083
      19.5449       611116
      19.4448       637158
      19.3447       664559
      19.2446       693587
      19.1446       723592
      19.0445       754192
      18.9444       785908
      18.8444       819354
      18.7443       854712
      18.6442       891068
      18.5442       929547
      18.4441       970070
       18.344  1.01202e+06
       18.244   1.0553e+06
      18.1439  1.09909e+06
      18.0438  1.14485e+06
      17.9438  1.19276e+06
      17.8437  1.24309e+06
      17.7436  1.29602e+06
      17.6435  1.35054e+06
      17.5435  1.40853e+06
      17.4434    1.469e+06
      17.3433  1.53094e+06
      17.2433  1.59643e+06
      17.1432  1.66293e+06
      17.0431  1.73292e+06
      16.9431   1.8072e+06
       16.843  1.88311e+06
      16.7429  1.96106e+06
      16.6429  2.04286e+06
      16.5428  2.13114e+06
      16.4427  2.22199e+06
      16.3427  2.31533e+06
      16.2426  2.41286e+06
      16.1425  2.51706e+06
      16.0424   2.6248e+06
      15.9424  2.73574e+06
      15.8423  2.84723e+06
      15.7422  2.96404e+06
      15.6422  3.08692e+06
      15.5421  3.21731e+06
       15.442  3.35082e+06
       15.342  3.49302e+06
      15.2419  3.64319e+06
      15.1418  3.79836e+06
      15.0418  3.95795e+06
      14.9417  4.11807e+06
      14.8416   4.2861e+06
      14.7416  4.46349e+06
      14.6415  4.65298e+06
      14.5414  4.84622e+06
      14.4413  5.04458e+06
      14.3413  5.25768e+06
      14.2412  5.47965e+06
      14.1411  5.70623e+06
      14.0411  5.94755e+06
       13.941  6.19208e+06
      13.8409  6.45488e+06
      13.7409  6.72522e+06
      13.6408  6.99916e+06
      13.5407   7.2789e+06
      13.4407  7.57523e+06
      13.3406  7.89833e+06
      13.2405  8.23009e+06
      13.1405  8.57191e+06
      13.0404  8.93669e+06
      12.9403  9.31356e+06
      12.8402  9.70178e+06
      12.7402  1.00994e+07
      12.6401  1.04932e+07
        12.54  1.09067e+07
        12.44  1.13434e+07
      12.3399  1.18095e+07
      12.2398  1.22841e+07
      12.1398   1.2795e+07
      12.0397   1.3337e+07
      11.9396   1.3896e+07
      11.8396  1.44692e+07
      11.7395  1.50384e+07
      11.6394  1.56429e+07
      11.5394  1.62997e+07
      11.4393  1.69744e+07
      11.3392  1.76557e+07
      11.2391  1.83519e+07
      11.1391  1.91132e+07
       11.039   1.9905e+07
      10.9389  2.07109e+07
      10.8389  2.15829e+07
      10.7388  2.24827e+07
      10.6387  2.34085e+07
      10.5387  2.43549e+07
      10.4386     2.53e+07
      10.3385  2.62496e+07
      10.2385  2.72856e+07
      10.1384  2.84232e+07
      10.0383  2.95835e+07
      9.93826  3.07769e+07
      9.83819  3.20627e+07
      9.73812  3.33882e+07
      9.63805  3.47497e+07
      9.53798  3.61378e+07
      9.43791  3.74913e+07
      9.33784  3.89343e+07
      9.23777  4.05194e+07
      9.13771  4.21184e+07
      9.03764  4.37332e+07
      8.93757  4.55034e+07
       8.8375   4.7395e+07
      8.73743  4.93422e+07
      8.63736  5.13344e+07
      8.53729  5.32951e+07
      8.43722  5.54796e+07
      8.33716  5.77217e+07
      8.23709  6.00067e+07
      8.13702  6.22729e+07
      8.03695  6.45645e+07
      7.93688  6.71529e+07
      7.83681  6.98226e+07
      7.73674  7.25152e+07
      7.63667  7.54768e+07
      7.53661  7.85188e+07
      7.43654  8.16288e+07
      7.33647  8.47786e+07
       7.2364  8.78458e+07
      7.13633  9.09019e+07
      7.03626  9.43084e+07
      6.93619   9.8148e+07
      6.83612  1.02028e+08
      6.73606  1.06017e+08
      6.63599  1.10388e+08
      6.53592  1.14889e+08
      6.43585  1.19506e+08
      6.33578  1.24203e+08
      6.23571  1.28722e+08
      6.13564  1.33886e+08
      6.03557  1.39143e+08
      5.93551  1.44361e+08
      5.83544  1.49573e+08
      5.73537  1.55485e+08
       5.6353  1.61891e+08
      5.53523    1.685e+08
      5.43516  1.75309e+08
      5.33509  1.82305e+08
      5.23502   1.8947e+08
      5.13496  1.96768e+08
      5.03489  2.04118e+08
      4.93482  2.11182e+08
      4.83475  2.18105e+08
      4.73468  2.26671e+08
      4.63461  2.35269e+08
      4.53454  2.43843e+08
      4.43447  2.53563e+08
      4.33441  2.63513e+08
      4.23434  2.73637e+08
      4.13427   2.8381e+08
       4.0342  2.93394e+08
      3.93413  3.03121e+08
      3.83406  3.15246e+08
      3.73399  3.27606e+08
      3.63392  3.39892e+08
      3.53386  3.52556e+08
      3.43379   3.6684e+08
      3.33372  3.81554e+08
      3.23365  3.96681e+08
      3.13358  4.12193e+08
      3.03351  4.28039e+08
      2.93344  4.44124e+08
      2.83337  4.60249e+08
      2.73331  4.75699e+08
      2.63324  4.90745e+08
      2.53317  5.08952e+08
       2.4331  5.29028e+08
      2.33303   5.4963e+08
      2.23296  5.70715e+08
      2.13289  5.92212e+08
      2.03283  6.14011e+08
      1.93276  6.35911e+08
      1.83269  6.57488e+08
      1.73262  6.76875e+08
      1.63255  6.95503e+08
      1.53248  7.21408e+08
      1.43241   7.4684e+08
      1.33234  7.71752e+08
      1.23228  8.01696e+08
      1.13221  8.32256e+08
      1.03214  8.63229e+08
     0.932069  8.94144e+08
        0.832  9.21847e+08
     0.731931  9.55764e+08
     0.631863  9.91712e+08
     0.531794  1.02782e+09
     0.431725  1.06241e+09
     0.331656  1.09826e+09
     0.231588  1.14084e+09
     0.131519  1.18444e+09
    0.0314502  1.22896e+09
   -0.0686186  1.27422e+09
    -0.168687  1.31993e+09
    -0.268756  1.36559e+09
    -0.368825  1.41016e+09
    -0.468894  1.44984e+09
    -0.568962  1.48657e+09
    -0.669031  1.53857e+09
      -0.7691    1.598e+09
    -0.869169  1.65885e+09
    -0.969237  1.72098e+09
     -1.06931  1.78414e+09
     -1.16937  1.84796e+09
     -1.26944  1.91174e+09
     -1.36951  1.97395e+09
     -1.46958  2.02584e+09
     -1.56965  2.09219e+09
     -1.66972  2.16466e+09
     -1.76979  2.23285e+09
     -1.86986  2.29789e+09
     -1.96992  2.38614e+09
     -2.06999  2.47656e+09
     -2.17006  2.56898e+09
     -2.27013  2.66315e+09
      -2.3702  2.75867e+09
     -2.47027  2.85495e+09
     -2.57034  2.95092e+09
     -2.67041  3.04429e+09
     -2.77047  3.12603e+09
     -2.87054  3.21278e+09
     -2.97061  3.32826e+09
     -3.07068  3.44519e+09
     -3.17075  3.56294e+09
     -3.27082  3.68053e+09
     -3.37089  3.79649e+09
     -3.47096  3.90824e+09
     -3.57102  4.01039e+09
     -3.67109  4.08267e+09
     -3.77116  4.13802e+09
     -3.87123  4.27037e+09
      -3.9713  4.43241e+09
     -4.07137  4.59836e+09
     -4.17144  4.76796e+09
     -4.27151  4.94084e+09
     -4.37157  5.11645e+09
     -4.47164  5.29406e+09
     -4.57171  5.47256e+09
     -4.67178  5.65028e+09
     -4.77185  5.82433e+09
     -4.87192  5.98871e+09
     -4.97199  6.12296e+09
     -5.07206   6.2391e+09
     -5.17212  6.46017e+09
     -5.27219   6.6842e+09
     -5.37226  6.91018e+09
     -5.47233  7.13673e+09
      -5.5724  7.36185e+09
     -5.67247  7.58245e+09
     -5.77254  7.79316e+09
     -5.87261  7.98238e+09
     -5.97267  8.10193e+09
     -6.07274  8.25131e+09
     -6.17281  8.52992e+09
     -6.27288  8.80966e+09
     -6.37295  9.08842e+09
     -6.47302  9.36313e+09
     -6.57309  9.62901e+09
     -6.67316   9.8776e+09
     -6.77322    1.009e+10
     -6.87329  1.01791e+10
     -6.97336  1.03586e+10
     -7.07343  1.07158e+10
      -7.1735  1.10773e+10
     -7.27357  1.14417e+10
     -7.37364  1.18071e+10
     -7.47371  1.21714e+10
     -7.57377  1.25313e+10
     -7.67384  1.28829e+10
     -7.77391  1.32203e+10
     -7.87398  1.35347e+10
     -7.97405  1.38112e+10
     -8.07412  1.40188e+10
     -8.17419  1.40496e+10
     -8.27426   1.3998e+10
     -8.37432  1.44346e+10
     -8.47439  1.48671e+10
     -8.57446  1.52909e+10
     -8.67453  1.56997e+10
      -8.7746  1.60843e+10
     -8.87467  1.64302e+10
     -8.97474  1.67118e+10
     -9.07481  1.68715e+10
     -9.17487  1.66533e+10
     -9.27494   1.6645e+10
     -9.37501  1.72428e+10
     -9.47508  1.78528e+10
     -9.57515  1.84738e+10
     -9.67522  1.91048e+10
     -9.77529  1.97441e+10
     -9.87536  2.03899e+10
     -9.97542    2.104e+10
     -10.0755  2.16916e+10
     -10.1756  2.23412e+10
