pressure[atm]        = 1
temperature[K]       = 300
energy step[1/cm]    = 63
maximum energy[1/cm] = 6255

Bimolecular-to-bimolecular product energy distributions:
  E, kcal/mol       P0->P1
      17.8837  3.57523e-08
      17.7036  4.54119e-08
      17.5235  5.76547e-08
      17.3433  7.31635e-08
      17.1632  9.27996e-08
      16.9831  1.17648e-07
       16.803  1.49077e-07
      16.6228  1.88806e-07
      16.4427     2.39e-07
      16.2626  3.02382e-07
      16.0825  3.82369e-07
      15.9024  4.83255e-07
      15.7222  6.10424e-07
      15.5421  7.70628e-07
       15.362  9.72325e-07
      15.1819   1.2261e-06
      15.0017  1.54521e-06
      14.8216   1.9462e-06
      14.6415  2.44977e-06
      14.4614  3.08174e-06
      14.2812  3.87429e-06
      14.1011  4.86754e-06
       13.921  6.11144e-06
      13.7409  7.66809e-06
      13.5607  9.61468e-06
      13.3806   1.2047e-05
      13.2005  1.50841e-05
      13.0204   1.8873e-05
      12.8402  2.35962e-05
      12.6601   2.9479e-05
        12.48     3.68e-05
      12.2999  4.59026e-05
      12.1198  5.72101e-05
      11.9396  7.12433e-05
      11.7595  8.86429e-05
      11.5794  0.000110195
      11.3993  0.000136866
      11.2191  0.000169837
       11.039  0.000210554
      10.8589  0.000260784
      10.6788  0.000322682
      10.4986  0.000398872
      10.3185  0.000492548
      10.1384  0.000607587
      9.95827  0.000748691
      9.77815  0.000921555
      9.59802   0.00113306
       9.4179   0.00139149
      9.23777   0.00170683
      9.05765   0.00209106
      8.87753   0.00255851
       8.6974    0.0031263
      8.51728   0.00381481
      8.33716   0.00464825
      8.15703   0.00565533
      7.97691   0.00686998
      7.79678   0.00833217
      7.61666    0.0100888
      7.43654     0.012195
      7.25641    0.0147146
      7.07629    0.0177221
      6.89617    0.0213038
      6.71604    0.0255591
      6.53592    0.0306024
      6.35579    0.0365648
      6.17567    0.0435957
      5.99555    0.0518644
      5.81542    0.0615613
       5.6353    0.0728995
      5.45518    0.0861148
      5.27505     0.101466
      5.09493     0.119231
       4.9148     0.139707
      4.73468     0.163205
      4.55456     0.190042
      4.37443     0.220528
      4.19431     0.254951
      4.01419     0.293564
      3.83406     0.336549
      3.65394     0.383982
      3.47381     0.435787
      3.29369     0.491706
      3.11357     0.551266
      2.93344      0.61373
      2.75332     0.678028
       2.5732      0.74271
      2.39307     0.805897
      2.21295     0.865244
      2.03283     0.917917
       1.8527     0.960583
      1.67258       0.9894
      1.49245            1
      1.31233     0.987443
      1.13221     0.946076
     0.952083     0.869168
     0.771959     0.748248
     0.591835     0.573219
     0.411711     0.342166
     0.231588     0.110932
    0.0514639    0.0152694
     -0.12866   0.00786567
    -0.308784   0.00437524
    -0.488907   0.00243742
    -0.669031   0.00133999
    -0.849155  0.000710774
     -1.02928   0.00035718
      -1.2094  0.000169324
     -1.38953  7.60804e-05
     -1.56965  3.25352e-05
     -1.74977  1.32576e-05
      -1.9299   5.1319e-06
     -2.11002  1.87359e-06
     -2.29014  6.38453e-07
     -2.47027  2.00015e-07
     -2.65039  5.63644e-08
     -2.83052  1.37484e-08
     -3.01064  2.73027e-09
     -3.19076  3.82591e-10
     -3.37089  1.90786e-11
     -3.55101 -4.95454e-12
     -3.73113  -8.0052e-13

Well-to-bimolecular product energy distributions:
  E, kcal/mol       W0->P0       W0->P1
      17.8837  1.50549e-16  1.60249e-18
      17.7036  2.46772e-19  2.59354e-21
      17.5235 -2.82102e-16 -2.92719e-18
      17.3433  4.84588e-16  4.96394e-18
      17.1632 -5.88645e-16 -5.95226e-18
      16.9831  7.65186e-16  7.63718e-18
       16.803   1.2163e-16  1.19815e-18
      16.6228  2.75628e-16  2.67952e-18
      16.4427   5.0668e-16  4.86063e-18
      16.2626 -4.28096e-15 -4.05218e-17
      16.0825  9.66534e-16  9.02635e-18
      15.9024  9.78496e-16  9.01493e-18
      15.7222  2.28631e-15  2.07781e-17
      15.5421 -2.35515e-15 -2.11114e-17
       15.362  4.79588e-15  4.23988e-17
      15.1819   4.2552e-15  3.70979e-17
      15.0017  2.05136e-15  1.76348e-17
      14.8216 -3.69115e-15 -3.12856e-17
      14.6415  5.31785e-15  4.44349e-17
      14.4614 -7.03905e-15  -5.7977e-17
      14.2812 -1.34578e-14 -1.09249e-16
      14.1011  -3.2792e-15 -2.62338e-17
       13.921 -1.69382e-15 -1.33523e-17
      13.7409  4.41172e-15  3.42643e-17
      13.5607 -1.93593e-14 -1.48119e-16
      13.3806 -3.86415e-14 -2.91212e-16
      13.2005  4.29868e-14  3.19056e-16
      13.0204  2.34806e-14  1.71617e-16
      12.8402 -1.26711e-14 -9.11857e-17
      12.6601 -5.02886e-14 -3.56277e-16
        12.48  -2.9796e-14 -2.07791e-16
      12.2999 -3.17582e-15 -2.17982e-17
      12.1198  8.90142e-14  6.01273e-16
      11.9396  6.61229e-15  4.39506e-17
      11.7595 -4.78093e-14 -3.12665e-16
      11.5794  1.67281e-13  1.07626e-15
      11.3993 -1.35455e-13 -8.57275e-16
      11.2191 -1.88079e-14 -1.17075e-16
       11.039  8.38287e-15  5.13163e-17
      10.8589  7.25246e-14   4.3654e-16
      10.6788 -5.13797e-13 -3.04049e-15
      10.4986  4.50796e-14  2.62227e-16
      10.3185  6.88292e-15  3.93499e-17
      10.1384 -3.93248e-13  -2.2092e-15
      9.95827  5.83271e-14   3.2192e-16
      9.77815  -2.5515e-13  -1.3832e-15
      9.59802  2.61497e-13  1.39208e-15
       9.4179  2.73862e-13   1.4313e-15
      9.23777  3.60733e-13  1.85045e-15
      9.05765  1.01719e-12  5.12018e-15
      8.87753   1.8384e-13  9.07856e-16
       8.6974 -1.47922e-12 -7.16529e-15
      8.51728 -1.51648e-13 -7.20463e-16
      8.33716 -1.58783e-12 -7.39817e-15
      8.15703 -2.56566e-12 -1.17233e-14
      7.97691 -1.21361e-12 -5.43813e-15
      7.79678 -5.24063e-13 -2.30292e-15
      7.61666  8.89567e-15  3.83365e-17
      7.43654  1.59642e-13  6.74742e-16
      7.25641 -2.81422e-12 -1.16665e-14
      7.07629 -2.32898e-12 -9.47081e-15
      6.89617 -8.86295e-12 -3.53585e-14
      6.71604  7.62281e-13  2.98383e-15
      6.53592   1.5401e-12  5.91536e-15
      6.35579  -6.6877e-12 -2.52041e-14
      6.17567 -2.15082e-12 -7.95272e-15
      5.99555 -6.41454e-12  -2.3265e-14
      5.81542  -1.9568e-11 -6.95958e-14
       5.6353  7.89124e-12  2.75112e-14
      5.45518  2.56252e-12  8.75315e-15
      5.27505  1.94682e-11  6.51242e-14
      5.09493  3.71603e-11  1.21677e-13
       4.9148  1.25907e-10  4.03376e-13
      4.73468  3.72718e-10  1.16787e-12
      4.55456  1.31845e-09  4.03907e-12
      4.37443    4.919e-09  1.47309e-11
      4.19431  1.71952e-08  5.03409e-11
      4.01419  5.67736e-08  1.62533e-10
      3.83406  1.78204e-07  4.99211e-10
      3.65394  5.34329e-07  1.46659e-09
      3.47381  1.52465e-06  4.10913e-09
      3.29369  4.12555e-06  1.09511e-08
      3.11357  1.06193e-05  2.78658e-08
      2.93344  2.62307e-05  6.83366e-08
      2.75332  6.28469e-05  1.63374e-07
       2.5732  0.000147378  3.84588e-07
      2.39307  0.000340538  8.98511e-07
      2.21295  0.000778957  2.09649e-06
      2.03283   0.00176718  4.90489e-06
       1.8527   0.00398115  1.15532e-05
      1.67258   0.00890808  2.75091e-05
      1.49245    0.0197618  6.64533e-05
      1.31233    0.0433574  0.000163726
      1.13221    0.0936205  0.000414214
     0.952083     0.196787   0.00108416
     0.771959     0.393573   0.00296072
     0.591835     0.710693   0.00848646
     0.411711            1    0.0250063
     0.231588     0.696758    0.0690138
    0.0514639     0.021365     0.152342
     -0.12866            0     0.282749
    -0.308784            0      0.48085
    -0.488907            0     0.725369
    -0.669031            0     0.934396
    -0.849155            0            1
     -1.02928            0     0.889988
      -1.2094            0     0.675283
     -1.38953            0     0.451795
     -1.56965            0     0.274306
     -1.74977            0     0.153868
      -1.9299            0    0.0805251
     -2.11002            0    0.0394643
     -2.29014            0    0.0180894
     -2.47027            0   0.00771437
     -2.65039            0   0.00303141
     -2.83052            0   0.00108154
     -3.01064            0  0.000342123
     -3.19076            0  9.24021e-05
     -3.37089            0  1.99445e-05
     -3.55101            0  2.99376e-06
     -3.73113            0  2.10243e-07

pressure[atm]        = 1
temperature[K]       = 500
energy step[1/cm]    = 104
maximum energy[1/cm] = 10426

Bimolecular-to-bimolecular product energy distributions:
  E, kcal/mol       P0->P1
       29.809  2.38683e-07
      29.5117  2.99947e-07
      29.2144  3.76725e-07
       28.917  4.72886e-07
      28.6197  5.93248e-07
      28.3223  7.43808e-07
       28.025  9.32019e-07
      27.7276  1.16714e-06
      27.4303  1.46068e-06
      27.1329  1.82689e-06
      26.8356  2.28344e-06
      26.5382  2.85223e-06
      26.2409  3.56033e-06
      25.9435  4.44121e-06
      25.6462  5.53621e-06
      25.3488  6.89632e-06
      25.0515  8.58441e-06
      24.7541  1.06779e-05
      24.4568   1.3272e-05
      24.1595  1.64839e-05
      23.8621  2.04572e-05
      23.5648  2.53681e-05
      23.2674  3.14327e-05
      22.9701  3.89151e-05
      22.6727  4.81384e-05
      22.3754  5.94968e-05
       22.078  7.34709e-05
      21.7807  9.06461e-05
      21.4833  0.000111734
       21.186    0.0001376
      20.8886  0.000169292
      20.5913   0.00020808
      20.2939  0.000255499
      19.9966  0.000313404
      19.6992  0.000384031
      19.4019  0.000470073
      19.1046  0.000574762
      18.8072   0.00070198
      18.5099   0.00085637
      18.2125   0.00104349
      17.9152   0.00126996
      17.6178   0.00154367
      17.3205   0.00187399
      17.0231   0.00227202
      16.7258   0.00275087
      16.4284   0.00332605
      16.1311   0.00401578
      15.8337   0.00484147
      15.5364   0.00582815
       15.239   0.00700506
      14.9417   0.00840624
      14.6443    0.0100712
       14.347    0.0120457
      14.0497    0.0143822
      13.7523    0.0171412
       13.455    0.0203917
      13.1576     0.024212
      12.8603     0.028691
      12.5629    0.0339286
      12.2656    0.0400364
      11.9682    0.0471384
      11.6709    0.0553712
      11.3735    0.0648856
      11.0762    0.0758455
      10.7788    0.0884276
      10.4815      0.10282
      10.1841     0.119222
      9.88679     0.137838
      9.58944     0.158882
       9.2921     0.182561
      8.99475     0.209074
       8.6974     0.238592
      8.40006     0.271253
      8.10271     0.307148
      7.80536     0.346316
      7.50801     0.388723
      7.21067     0.434245
      6.91332      0.48265
      6.61597     0.533594
      6.31863     0.586626
      6.02128     0.641163
      5.72393     0.696463
      5.42658     0.751597
      5.12924     0.805402
      4.83189     0.856439
      4.53454     0.903009
       4.2372      0.94309
      3.93985     0.974381
       3.6425     0.994305
      3.34516            1
      3.04781     0.988789
      2.75046     0.958551
      2.45311     0.907834
      2.15577     0.836166
      1.85842     0.744335
      1.56107     0.634474
      1.26373     0.509806
     0.966378     0.373913
     0.669031     0.229321
     0.371684    0.0828352
    0.0743368   0.00499855
     -0.22301   0.00214888
    -0.520357   0.00110126
    -0.817705   0.00051625
     -1.11505   0.00019774
      -1.4124  6.18753e-05
     -1.70975  1.67263e-05
     -2.00709  3.99612e-06
     -2.30444  8.34385e-07
     -2.60179  1.47021e-07
     -2.89913  2.05166e-08
     -3.19648  2.01068e-09
     -3.49383  1.04247e-10
     -3.79118  8.00508e-13

pressure[atm]        = 1
temperature[K]       = 750
energy step[1/cm]    = 156
maximum energy[1/cm] = 15638

Bimolecular-to-bimolecular product energy distributions:
  E, kcal/mol       P0->P1
      44.7107  9.64997e-07
      44.2647  1.20559e-06
      43.8187  1.50522e-06
      43.3727  1.87808e-06
      42.9266  2.34177e-06
      42.4806  2.91797e-06
      42.0346  3.63346e-06
      41.5886  4.52123e-06
      41.1425  5.62192e-06
      40.6965  6.98552e-06
      40.2505  8.67348e-06
      39.8045  1.07612e-05
      39.3585  1.33413e-05
      38.9124   1.6527e-05
      38.4664  2.04573e-05
      38.0204  2.53016e-05
      37.5744  3.12672e-05
      37.1284  3.86067e-05
      36.6823  4.76282e-05
      36.2363  5.87061e-05
      35.7903  7.22958e-05
      35.3443    8.895e-05
      34.8983  0.000109338
      34.4522  0.000134272
      34.0062   0.00016473
      33.5602  0.000201896
      33.1142  0.000247195
      32.6682  0.000302343
      32.2221  0.000369399
      31.7761  0.000450836
      31.3301  0.000549614
      30.8841  0.000669268
      30.4381  0.000814021
       29.992  0.000988896
       29.546   0.00119986
         29.1   0.00145401
       28.654   0.00175971
      28.2079   0.00212687
      27.7619   0.00256715
      27.3159   0.00309427
      26.8699   0.00372429
      26.4239   0.00447603
      25.9778   0.00537141
      25.5318   0.00643589
      25.0858   0.00769902
      24.6398   0.00919495
      24.1938     0.010963
      23.7477    0.0130483
      23.3017    0.0155025
      22.8557    0.0183844
      22.4097    0.0217607
      21.9637    0.0257065
      21.5176    0.0303063
      21.0716    0.0356544
      20.6256    0.0418555
      20.1796    0.0490249
      19.7336    0.0572896
      19.2875    0.0667872
      18.8415    0.0776661
      18.3955    0.0900845
      17.9495      0.10421
      17.5035     0.120215
      17.0574     0.138278
      16.6114     0.158576
      16.1654     0.181282
      15.7194     0.206561
      15.2733     0.234562
      14.8273     0.265408
      14.3813     0.299196
      13.9353     0.335976
      13.4893     0.375737
      13.0432       0.4184
      12.5972     0.463801
      12.1512     0.511666
      11.7052     0.561595
      11.2592      0.61308
      10.8131     0.665487
      10.3671     0.718036
       9.9211     0.769805
      9.47508     0.819744
      9.02906     0.866619
      8.58304     0.908969
      8.13702     0.945129
        7.691     0.973419
      7.24498     0.992214
      6.79896            1
      6.35294     0.995595
      5.90691     0.978295
      5.46089     0.947746
      5.01487     0.903811
      4.56885     0.846535
      4.12283      0.77627
      3.67681     0.693814
      3.23079     0.600483
      2.78477     0.499022
      2.33875     0.393829
      1.89273     0.290371
      1.44671     0.194508
      1.00069      0.11111
     0.554667    0.0422733
     0.108646   0.00158015
    -0.337375  0.000485571
    -0.783395  0.000196242
     -1.22942  4.46581e-05
     -1.67544  6.04362e-06
     -2.12146  5.94913e-07
     -2.56748  4.17904e-08
      -3.0135  1.75292e-09
     -3.45952  2.63672e-11
     -3.90554  7.10942e-18

pressure[atm]        = 1
temperature[K]       = 1000
energy step[1/cm]    = 209
maximum energy[1/cm] = 20851

Bimolecular-to-bimolecular product energy distributions:
  E, kcal/mol       P0->P1
      59.6152   2.2528e-06
      59.0177  2.80693e-06
      58.4201  3.49492e-06
      57.8226  4.34848e-06
       57.225   5.4066e-06
      56.6275  6.71727e-06
      56.0299  8.33946e-06
      55.4324  1.03455e-05
      54.8348  1.28242e-05
      54.2373  1.58842e-05
      53.6397  1.96585e-05
      53.0422  2.43097e-05
      52.4446  3.00362e-05
       51.847    3.708e-05
      51.2495  4.57358e-05
      50.6519  5.63621e-05
      50.0544  6.93942e-05
      49.4568  8.53607e-05
      48.8593  0.000104901
      48.2617  0.000128791
      47.6642  0.000157965
      47.0666  0.000193553
      46.4691  0.000236914
      45.8715  0.000289683
       45.274  0.000353825
      44.6764  0.000431694
      44.0789  0.000526106
      43.4813  0.000640427
      42.8837  0.000778669
      42.2862  0.000945608
      41.6886   0.00114692
      41.0911   0.00138931
      40.4935   0.00168075
       39.896   0.00203062
      39.2984   0.00244997
      38.7009   0.00295176
      38.1033   0.00355122
      37.5058    0.0042661
      36.9082   0.00511711
      36.3107   0.00612832
      35.7131   0.00732759
      35.1156   0.00874712
       34.518     0.010424
      33.9204    0.0124006
      33.3229    0.0147255
      32.7253     0.017454
      32.1278    0.0206485
      31.5302    0.0243798
      30.9327     0.028727
      30.3351    0.0337786
      29.7376    0.0396328
        29.14    0.0463977
      28.5425    0.0541918
      27.9449    0.0631442
      27.3474    0.0733939
      26.7498    0.0850893
      26.1523    0.0983872
      25.5547      0.11345
      24.9571     0.130446
      24.3596     0.149542
       23.762     0.170906
      23.1645     0.194695
      22.5669     0.221057
      21.9694     0.250116
      21.3718     0.281967
      20.7743     0.316668
      20.1767     0.354227
      19.5792     0.394595
      18.9816     0.437653
      18.3841     0.483193
      17.7865     0.530916
       17.189     0.580408
      16.5914     0.631124
      15.9938     0.682403
      15.3963     0.733449
      14.7987     0.783334
      14.2012     0.831026
      13.6036     0.875361
      13.0061     0.915062
      12.4085     0.948774
       11.811     0.975061
      11.2134     0.992538
      10.6159            1
      10.0183       0.9964
      9.42076     0.980979
       8.8232     0.953179
      8.22565     0.912529
       7.6281     0.859066
      7.03054     0.793631
      6.43299      0.71787
      5.83544     0.634412
      5.23788     0.546314
      4.64033     0.456452
      4.04278     0.367479
      3.44522     0.281956
      2.84767     0.202631
      2.25012     0.133086
      1.65256    0.0766558
      1.05501    0.0351966
     0.457457   0.00780742
    -0.140096  0.000202451
     -0.73765  7.69122e-05
      -1.3352  1.04638e-05
     -1.93276  5.53496e-07
     -2.53031  1.61569e-08
     -3.12786  1.88562e-10
     -3.72542  1.38628e-13

pressure[atm]        = 1
temperature[K]       = 1250
energy step[1/cm]    = 261
maximum energy[1/cm] = 26064

Bimolecular-to-bimolecular product energy distributions:
  E, kcal/mol       P0->P1
      74.5198  4.00651e-06
      73.7735   4.9775e-06
      73.0273   6.1793e-06
      72.2811  7.66559e-06
      71.5349  9.50219e-06
      70.7886  1.17698e-05
      70.0424   1.4567e-05
      69.2962  1.80147e-05
      68.5499  2.22603e-05
      67.8037  2.74835e-05
      67.0575  3.39037e-05
      66.3113  4.17876e-05
       65.565  5.14593e-05
      64.8188  6.33127e-05
      64.0726  7.78251e-05
      63.3264  9.55745e-05
      62.5801   0.00011726
      61.8339  0.000143725
      61.0877  0.000175988
      60.3415  0.000215274
      59.5952  0.000263056
       58.849  0.000321101
      58.1028  0.000391529
      57.3565  0.000476873
      56.6103  0.000580159
      55.8641  0.000704994
      55.1179   0.00085567
      54.3716   0.00103728
      53.6254   0.00125587
      52.8792   0.00151858
       52.133   0.00183383
      51.3867   0.00221155
      50.6405   0.00266339
      49.8943   0.00320301
       49.148   0.00384638
      48.4018   0.00461209
      47.6556   0.00552177
      46.9094   0.00660049
      46.1631   0.00787721
      45.4169   0.00938527
      44.6707    0.0111629
      43.9245     0.013254
      43.1782    0.0157083
       42.432    0.0185824
      41.6858    0.0219402
      40.9396    0.0258536
      40.1933    0.0304027
      39.4471    0.0356772
      38.7009    0.0417757
      37.9546    0.0488069
      37.2084    0.0568893
      36.4622    0.0661511
       35.716      0.07673
      34.9697    0.0887721
      34.2235     0.102431
      33.4773     0.117865
      32.7311     0.135237
      31.9848     0.154708
      31.2386     0.176437
      30.4924     0.200573
      29.7461     0.227249
      28.9999     0.256577
      28.2537      0.28864
      27.5075     0.323481
      26.7612     0.361098
       26.015     0.401427
      25.2688     0.444329
      24.5226     0.489587
      23.7763     0.536889
      23.0301     0.585826
