pressure[atm]        = 0.1
temperature[K]       = 200
energy step[1/cm]    = 42
maximum energy[1/cm] = 4170

Bimolecular-to-bimolecular product energy distributions:
  E, kcal/mol       P0->P1
      11.9225  8.34035e-09
      11.8024  1.06711e-08
      11.6823  1.36478e-08
      11.5622  1.74482e-08
      11.4421  2.22978e-08
      11.3221   2.8484e-08
       11.202  3.63714e-08
      11.0819  4.64238e-08
      10.9618  5.92294e-08
      10.8417  7.55351e-08
      10.7217  9.62878e-08
      10.6016  1.22688e-07
      10.4815  1.56256e-07
      10.3614  1.98918e-07
      10.2413  2.53111e-07
      10.1212  3.21916e-07
      10.0012   4.0923e-07
      9.88107  5.19975e-07
      9.76099  6.60364e-07
      9.64091  8.38237e-07
      9.52083  1.06348e-06
      9.40074  1.34854e-06
      9.28066  1.70911e-06
      9.16058   2.1649e-06
       9.0405  2.74073e-06
      8.92041  3.46775e-06
      8.80033  4.38504e-06
      8.68025  5.54165e-06
      8.56017    6.999e-06
      8.44008    8.834e-06
         8.32  1.11429e-05
      8.19992  1.40458e-05
      8.07984   1.7693e-05
      7.95975  2.22717e-05
      7.83967  2.80153e-05
      7.71959  3.52144e-05
      7.59951  4.42303e-05
      7.47942  5.55122e-05
      7.35934  6.96173e-05
      7.23926  8.72364e-05
      7.11918  0.000109225
      6.99909  0.000136641
      6.87901  0.000170792
      6.75893  0.000213292
      6.63885  0.000266129
      6.51876  0.000331754
      6.39868  0.000413179
       6.2786  0.000514104
      6.15852  0.000639067
      6.03843  0.000793626
      5.91835  0.000984578
      5.79827   0.00122023
      5.67819   0.00151069
       5.5581   0.00186827
      5.43802   0.00230794
      5.31794   0.00284783
      5.19786   0.00350985
      5.07777   0.00432046
      4.95769    0.0053115
      4.83761   0.00652123
      4.71753   0.00799544
      4.59744   0.00978881
      4.47736    0.0119664
      4.35728    0.0146051
       4.2372    0.0177959
      4.11711    0.0216459
      3.99703      0.02628
      3.87695    0.0318439
      3.75687    0.0385054
      3.63678    0.0464572
       3.5167    0.0559182
      3.39662    0.0671357
      3.27654    0.0803863
      3.15645    0.0959771
      3.03637     0.114244
      2.91629     0.135547
      2.79621     0.160269
      2.67612     0.188802
      2.55604     0.221537
      2.43596     0.258845
      2.31588     0.301056
      2.19579     0.348423
      2.07571     0.401082
      1.95563     0.459003
      1.83555     0.521916
      1.71546     0.589232
      1.59538     0.659931
       1.4753     0.732433
      1.35522      0.80442
      1.23513     0.872613
      1.11505     0.932472
     0.994969      0.97777
     0.874887            1
     0.754804     0.987577
     0.634722     0.925092
     0.514639     0.794188
     0.394557     0.582021
     0.274474     0.311015
     0.154392    0.0817955
    0.0343093   0.00400498
   -0.0857732   0.00175701
    -0.205856   0.00100096
    -0.325938  0.000571348
    -0.446021   0.00032692
    -0.566103  0.000187632
    -0.686186  0.000108102
    -0.806268  6.25633e-05
    -0.926351  3.63874e-05
     -1.04643  2.12622e-05
     -1.16652  1.24622e-05
      -1.2866  7.30316e-06
     -1.40668  4.26032e-06
     -1.52676  2.46097e-06
     -1.64685  1.40237e-06
     -1.76693   7.8588e-07
     -1.88701  4.31873e-07
     -2.00709  2.32187e-07
     -2.12718  1.21661e-07
     -2.24726  6.19723e-08
     -2.36734  3.05622e-08
     -2.48742  1.45226e-08
     -2.60751  6.60313e-09
     -2.72759  2.84288e-09
     -2.84767   1.1476e-09
     -2.96775  4.26282e-10
     -3.08784  1.41897e-10
     -3.20792  4.02606e-11
       -3.328  8.66777e-12
     -3.44808  9.16165e-13
     -3.56817 -2.25449e-13
     -3.68825 -1.25572e-13
     -3.80833 -1.60026e-14

Well-to-bimolecular product energy distributions:
  E, kcal/mol       W0->P0       W0->P1
      11.9225 -4.92513e-13 -1.59604e-17
      11.8024  4.74059e-13  1.51972e-17
      11.6823  1.24646e-14   3.9527e-19
      11.5622 -9.15796e-13  -2.8726e-17
      11.4421 -2.36104e-14 -7.32518e-19
      11.3221  5.07585e-13  1.55753e-17
       11.202  4.73472e-13  1.43685e-17
      11.0819  1.12163e-12  3.36611e-17
      10.9618 -3.59007e-13 -1.06541e-17
      10.8417 -1.60237e-12 -4.70201e-17
      10.7217  4.24629e-14  1.23199e-18
      10.6016  5.54191e-13  1.58967e-17
      10.4815  3.61306e-15  1.02457e-19
      10.3614 -7.98243e-13 -2.23763e-17
      10.2413 -1.98702e-12 -5.50563e-17
      10.1212   3.8524e-12    1.055e-16
      10.0012 -2.23804e-12 -6.05713e-17
      9.88107 -3.48925e-13 -9.33184e-18
      9.76099  5.56558e-12  1.47074e-16
      9.64091 -6.22791e-12 -1.62597e-16
      9.52083 -3.07193e-12 -7.92277e-17
      9.40074  3.30473e-12   8.4188e-17
      9.28066  8.44545e-12  2.12489e-16
      9.16058   1.4814e-11  3.68077e-16
       9.0405 -9.70781e-12 -2.38176e-16
      8.92041  7.01425e-12  1.69912e-16
      8.80033  1.42339e-11   3.4041e-16
      8.68025   5.3112e-13  1.25394e-17
      8.56017 -2.49007e-11 -5.80336e-16
      8.44008  1.71739e-11  3.95098e-16
         8.32 -8.97453e-12 -2.03802e-16
      8.19992  4.08097e-11  9.14772e-16
      8.07984 -2.06558e-11 -4.57026e-16
      7.95975  1.95184e-11  4.26274e-16
      7.83967  9.72976e-12  2.09748e-16
      7.71959  1.73982e-11  3.70216e-16
      7.59951  7.51991e-11  1.57951e-15
      7.47942 -5.78001e-11 -1.19842e-15
      7.35934 -1.54997e-11  -3.1724e-16
      7.23926  1.13602e-11  2.29536e-16
      7.11918  1.43005e-11   2.8526e-16
      6.99909 -4.99117e-11 -9.82968e-16
      6.87901  6.22922e-11  1.21127e-15
      6.75893  8.82048e-11  1.69354e-15
      6.63885 -2.50541e-10 -4.74999e-15
      6.51876 -5.96946e-12 -1.11754e-16
      6.39868  7.27541e-11  1.34492e-15
       6.2786  2.35782e-10  4.30374e-15
      6.15852 -1.30435e-10 -2.35068e-15
      6.03843  1.68705e-12  3.00159e-17
      5.91835  2.57633e-10  4.52476e-15
      5.79827 -1.54621e-10  -2.6802e-15
      5.67819  7.80236e-10  1.33461e-14
       5.5581 -1.92965e-10 -3.25649e-15
      5.43802   3.7614e-10  6.26142e-15
      5.31794 -3.57427e-10 -5.86769e-15
      5.19786 -2.88826e-10 -4.67497e-15
      5.07777  -3.0937e-10 -4.93624e-15
      4.95769 -5.25563e-10 -8.26494e-15
      4.83761  1.07139e-10  1.66027e-15
      4.71753 -2.07467e-09 -3.16752e-14
      4.59744 -5.82447e-10 -8.75992e-15
      4.47736  9.21428e-10  1.36501e-14
      4.35728  6.12727e-10  8.94049e-15
       4.2372 -3.98884e-10 -5.73294e-15
      4.11711 -9.91918e-10 -1.40438e-14
      3.99703   3.7337e-10  5.20839e-15
      3.87695 -1.73705e-09 -2.38818e-14
      3.75687  2.05785e-09   2.7898e-14
      3.63678   -4.575e-09 -6.12031e-14
       3.5167  4.03144e-09  5.32726e-14
      3.39662 -3.14273e-09 -4.10731e-14
      3.27654  1.31738e-10  1.70538e-15
      3.15645  5.86846e-09  7.53728e-14
      3.03637  5.42241e-10  6.92249e-15
      2.91629  2.72933e-09  3.47049e-14
      2.79621  4.81269e-08  6.10908e-13
      2.67612  8.34905e-08  1.06068e-12
      2.55604  2.61023e-07  3.32839e-12
      2.43596  7.81387e-07  1.00333e-11
      2.31588   2.2496e-06  2.91961e-11
      2.19579  6.36055e-06  8.37933e-11
      2.07571  1.75236e-05  2.35494e-10
      1.95563  4.63795e-05  6.39484e-10
      1.83555  0.000117948  1.67987e-09
      1.71546   0.00028838  4.27668e-09
      1.59538  0.000681558  1.06253e-08
       1.4753   0.00156718  2.59804e-08
      1.35522   0.00352662   6.3046e-08
      1.23513   0.00780148  1.53025e-07
      1.11505    0.0169926  3.73739e-07
     0.994969    0.0364317  9.23824e-07
     0.874887    0.0765955   2.3225e-06
     0.754804     0.156695   5.9683e-06
     0.634722     0.306999  1.57404e-05
     0.514639     0.556647  4.25539e-05
     0.394557     0.870531  0.000116767
     0.274474            1   0.00031511
     0.154392     0.555066   0.00079122
    0.0343093    0.0148825   0.00178218
   -0.0857732            0   0.00380562
    -0.205856            0   0.00804034
    -0.325938            0    0.0167497
    -0.446021            0    0.0342204
    -0.566103            0    0.0679841
    -0.686186            0     0.129533
    -0.806268            0     0.232863
    -0.926351            0      0.38724
     -1.04643            0     0.583723
     -1.16652            0      0.78552
      -1.2866            0     0.938321
     -1.40668            0            1
     -1.52676            0     0.963918
     -1.64685            0     0.852466
     -1.76693            0     0.701625
     -1.88701            0     0.543892
     -2.00709            0     0.400567
     -2.12718            0     0.282097
     -2.24726            0     0.190594
     -2.36734            0     0.123762
     -2.48742            0    0.0772394
     -2.60751            0    0.0462661
     -2.72759            0    0.0265214
     -2.84767            0    0.0144757
     -2.96775            0    0.0074711
     -3.08784            0   0.00360948
     -3.20792            0   0.00160874
       -3.328            0  0.000647006
     -3.44808            0  0.000226539
     -3.56817            0  6.46322e-05
     -3.68825            0  1.31386e-05
     -3.80833            0  1.10592e-06

pressure[atm]        = 1
temperature[K]       = 200
energy step[1/cm]    = 42
maximum energy[1/cm] = 4170

Bimolecular-to-bimolecular product energy distributions:
  E, kcal/mol       P0->P1
      11.9225  8.36136e-09
      11.8024   1.0698e-08
      11.6823  1.36822e-08
      11.5622  1.74921e-08
      11.4421   2.2354e-08
      11.3221  2.85557e-08
       11.202   3.6463e-08
      11.0819  4.65407e-08
      10.9618  5.93786e-08
      10.8417  7.57253e-08
      10.7217  9.65303e-08
      10.6016  1.22997e-07
      10.4815   1.5665e-07
      10.3614  1.99419e-07
      10.2413  2.53748e-07
      10.1212  3.22727e-07
      10.0012  4.10261e-07
      9.88107  5.21285e-07
      9.76099  6.62027e-07
      9.64091  8.40348e-07
      9.52083  1.06616e-06
      9.40074  1.35194e-06
      9.28066  1.71341e-06
      9.16058  2.17036e-06
       9.0405  2.74764e-06
      8.92041  3.47648e-06
      8.80033  4.39609e-06
      8.68025  5.55561e-06
      8.56017  7.01663e-06
      8.44008  8.85625e-06
         8.32  1.11709e-05
      8.19992  1.40812e-05
      8.07984  1.77376e-05
      7.95975  2.23278e-05
      7.83967  2.80859e-05
      7.71959  3.53031e-05
      7.59951  4.43417e-05
      7.47942   5.5652e-05
      7.35934  6.97927e-05
      7.23926  8.74561e-05
      7.11918    0.0001095
      6.99909  0.000136985
      6.87901  0.000171222
      6.75893  0.000213829
      6.63885  0.000266799
      6.51876   0.00033259
      6.39868   0.00041422
       6.2786  0.000515399
      6.15852  0.000640677
      6.03843  0.000795625
      5.91835  0.000987059
      5.79827    0.0012233
      5.67819   0.00151449
       5.5581   0.00187298
      5.43802   0.00231376
      5.31794     0.002855
      5.19786   0.00351869
      5.07777   0.00433134
      4.95769   0.00532488
      4.83761   0.00653765
      4.71753   0.00801558
      4.59744   0.00981348
      4.47736    0.0119965
      4.35728    0.0146419
       4.2372    0.0178408
      4.11711    0.0217004
      3.99703    0.0263462
      3.87695    0.0319241
      3.75687    0.0386024
      3.63678    0.0465742
       3.5167     0.056059
      3.39662    0.0673047
      3.27654    0.0805887
      3.15645    0.0962187
      3.03637     0.114531
      2.91629     0.135888
      2.79621     0.160672
      2.67612     0.189276
      2.55604     0.222093
      2.43596     0.259494
      2.31588      0.30181
      2.19579     0.349293
      2.07571     0.402081
      1.95563     0.460141
      1.83555     0.523201
      1.71546     0.590666
      1.59538      0.66151
       1.4753     0.734135
      1.35522     0.806197
      1.23513     0.874372
      1.11505     0.934038
     0.994969     0.978826
     0.874887            1
     0.754804     0.985653
     0.634722     0.920134
     0.514639      0.78577
     0.394557     0.573468
     0.274474      0.31322
     0.154392     0.103036
    0.0343093     0.027496
   -0.0857732    0.0161104
    -0.205856   0.00976228
    -0.325938   0.00597787
    -0.446021   0.00369882
    -0.566103   0.00230843
    -0.686186   0.00144758
    -0.806268  0.000906796
    -0.926351  0.000564049
     -1.04643  0.000346835
     -1.16652  0.000210298
      -1.2866  0.000125603
     -1.40668  7.38604e-05
     -1.52676  4.27084e-05
     -1.64685  2.42699e-05
     -1.76693  1.35383e-05
     -1.88701  7.39899e-06
     -2.00709  3.95356e-06
     -2.12718  2.05728e-06
     -2.24726  1.03953e-06
     -2.36734  5.07662e-07
     -2.48742  2.38269e-07
     -2.60751  1.06589e-07
     -2.72759  4.48716e-08
     -2.84767  1.75368e-08
     -2.96775  6.19557e-09
     -3.08784  1.89215e-09
     -3.20792   4.4847e-10
       -3.328  5.11744e-11
     -3.44808 -1.84386e-11
     -3.56817 -1.36098e-11
     -3.68825 -4.13351e-12
     -3.80833 -4.41012e-13

Well-to-bimolecular product energy distributions:
  E, kcal/mol       W0->P0       W0->P1
      11.9225   6.9279e-16  9.39868e-19
      11.8024  5.75885e-16   7.7287e-19
      11.6823 -2.70239e-15 -3.58759e-18
      11.5622 -1.78931e-15 -2.34963e-18
      11.4421 -1.93608e-16 -2.51465e-19
      11.3221 -3.54388e-15 -4.55247e-18
       11.202 -9.26766e-17 -1.17741e-19
      11.0819  3.92944e-15  4.93684e-18
      10.9618 -1.21095e-15 -1.50446e-18
      10.8417 -3.04065e-15  -3.7353e-18
      10.7217 -5.12577e-15 -6.22582e-18
      10.6016 -5.12283e-15 -6.15171e-18
      10.4815 -1.28806e-15 -1.52911e-18
      10.3614 -5.66857e-15  -6.6522e-18
      10.2413 -2.50374e-15 -2.90425e-18
      10.1212  -7.4583e-17 -8.55067e-20
      10.0012 -4.87373e-15 -5.52205e-18
      9.88107  1.46342e-15  1.63848e-18
      9.76099 -2.11488e-14 -2.33965e-17
      9.64091 -2.58824e-15 -2.82887e-18
      9.52083   -9.177e-15 -9.90845e-18
      9.40074  -6.7735e-15 -7.22382e-18
      9.28066 -3.22051e-15 -3.39217e-18
      9.16058 -2.11528e-15 -2.20026e-18
       9.0405  3.19947e-14  3.28619e-17
      8.92041 -9.14339e-15 -9.27236e-18
      8.80033 -1.43995e-15 -1.44166e-18
      8.68025  3.98396e-14  3.93765e-17
      8.56017 -5.43439e-14 -5.30222e-17
      8.44008 -3.13706e-14 -3.02134e-17
         8.32 -4.67143e-14 -4.44106e-17
      8.19992  3.72037e-14   3.4912e-17
      8.07984  8.32714e-14  7.71317e-17
      7.95975  3.86962e-14  3.53796e-17
      7.83967  1.19532e-13  1.07874e-16
      7.71959    4.381e-14  3.90267e-17
      7.59951  2.40916e-14  2.11844e-17
      7.47942  4.29821e-14  3.73086e-17
      7.35934 -3.48311e-14  -2.9845e-17
      7.23926 -1.87973e-13 -1.59002e-16
      7.11918   3.7524e-13  3.13356e-16
      6.99909 -1.39859e-13  -1.1531e-16
      6.87901 -3.91767e-13 -3.18915e-16
      6.75893  9.42873e-13  7.57872e-16
      6.63885 -8.38714e-13 -6.65682e-16
      6.51876 -2.18632e-13 -1.71349e-16
      6.39868 -2.11883e-13 -1.63975e-16
       6.2786  5.44097e-13  4.15768e-16
      6.15852  -1.2668e-13 -9.55755e-17
      6.03843 -6.97203e-13 -5.19305e-16
      5.91835 -1.95272e-12 -1.43573e-15
      5.79827 -7.95185e-15 -5.77041e-18
      5.67819  1.82008e-13  1.30334e-16
       5.5581 -1.61251e-13 -1.13923e-16
      5.43802  6.00531e-14  4.18502e-17
      5.31794   3.0602e-12  2.10314e-15
      5.19786  7.73311e-13  5.24005e-16
      5.07777 -1.39883e-12 -9.34377e-16
      4.95769 -5.03866e-12 -3.31717e-15
      4.83761  6.37186e-12  4.13367e-15
      4.71753  5.41789e-12  3.46289e-15
      4.59744  1.00889e-12  6.35222e-16
      4.47736  -3.9981e-12 -2.47952e-15
      4.35728 -9.09861e-13 -5.55788e-16
       4.2372 -1.14439e-12 -6.88563e-16
      4.11711   1.2088e-11  7.16473e-15
      3.99703    2.449e-11  1.43018e-14
      3.87695  1.86442e-11  1.07309e-14
      3.75687  4.09978e-11   2.3268e-14
      3.63678  1.50373e-10  8.42151e-14
       3.5167  4.32298e-10  2.39147e-13
      3.39662  1.34507e-09  7.35927e-13
      3.27654  3.96567e-09  2.14914e-12
      3.15645  1.13153e-08  6.08409e-12
      3.03637  3.12263e-08   1.6689e-11
      2.91629  8.38006e-08  4.46089e-11
      2.79621  2.18638e-07  1.16186e-10
      2.67612  5.56135e-07  2.95779e-10
      2.55604  1.37977e-06   7.3655e-10
      2.43596  3.34155e-06  1.79625e-09
      2.31588  7.91708e-06  4.30153e-09
      2.19579  1.83957e-05  1.01454e-08
      2.07571  4.20523e-05  2.36585e-08
      1.95563  9.49072e-05  5.47825e-08
      1.83555  0.000212059  1.26439e-07
      1.71546  0.000470114  2.91866e-07
      1.59538    0.0010351  6.75555e-07
       1.4753   0.00226432  1.57146e-06
      1.35522   0.00492058   3.6826e-06
      1.23513    0.0106141  8.71585e-06
      1.11505    0.0226683   2.0872e-05
     0.994969    0.0477562  5.06966e-05
     0.874887    0.0985883  0.000125146
     0.754804     0.197287  0.000314582
     0.634722     0.375182  0.000805305
     0.514639     0.651532   0.00208514
     0.394557     0.955388    0.0053648
     0.274474            1    0.0131917
     0.154392     0.492095    0.0293657
    0.0343093    0.0115033    0.0576684
   -0.0857732            0     0.104803
    -0.205856            0     0.181302
    -0.325938            0     0.295617
    -0.446021            0     0.449239
    -0.566103            0     0.629327
    -0.686186            0     0.805454
    -0.806268            0     0.939017
    -0.926351            0            1
     -1.04643            0     0.980382
     -1.16652            0     0.894359
      -1.2866            0     0.767695
     -1.40668            0     0.626258
     -1.52676            0     0.489572
     -1.64685            0     0.368823
     -1.76693            0      0.26885
     -1.88701            0     0.190124
     -2.00709            0     0.130609
     -2.12718            0    0.0872054
     -2.24726            0    0.0565525
     -2.36734            0    0.0355727
     -2.48742            0    0.0216557
     -2.60751            0    0.0127195
     -2.72759            0   0.00717768
     -2.84767            0   0.00386889
     -2.96775            0   0.00197674
     -3.08784            0  0.000947278
     -3.20792            0  0.000419424
       -3.328            0  0.000167775
     -3.44808            0  5.84879e-05
     -3.56817            0  1.66279e-05
     -3.68825            0  3.37052e-06
     -3.80833            0  2.83051e-07

pressure[atm]        = 2
temperature[K]       = 200
energy step[1/cm]    = 42
maximum energy[1/cm] = 4170

Bimolecular-to-bimolecular product energy distributions:
  E, kcal/mol       P0->P1
      11.9225  8.38501e-09
      11.8024  1.07282e-08
      11.6823  1.37209e-08
      11.5622  1.75416e-08
      11.4421  2.24172e-08
      11.3221  2.86364e-08
       11.202  3.65661e-08
      11.0819  4.66723e-08
      10.9618  5.95465e-08
      10.8417  7.59394e-08
      10.7217  9.68032e-08
      10.6016  1.23345e-07
      10.4815  1.57093e-07
      10.3614  1.99983e-07
      10.2413  2.54466e-07
      10.1212   3.2364e-07
      10.0012  4.11421e-07
      9.88107  5.22759e-07
      9.76099  6.63899e-07
      9.64091  8.42725e-07
      9.52083  1.06917e-06
      9.40074  1.35576e-06
      9.28066  1.71826e-06
      9.16058  2.17649e-06
       9.0405   2.7554e-06
      8.92041  3.48631e-06
      8.80033  4.40852e-06
      8.68025  5.57132e-06
      8.56017  7.03647e-06
      8.44008   8.8813e-06
         8.32  1.12025e-05
      8.19992   1.4121e-05
      8.07984  1.77877e-05
      7.95975  2.23909e-05
      7.83967  2.81653e-05
      7.71959  3.54029e-05
      7.59951  4.44671e-05
      7.47942  5.58094e-05
      7.35934    6.999e-05
      7.23926  8.77034e-05
      7.11918   0.00010981
      6.99909  0.000137373
      6.87901  0.000171706
      6.75893  0.000214434
      6.63885  0.000267554
      6.51876   0.00033353
      6.39868  0.000415391
       6.2786  0.000516856
      6.15852  0.000642488
      6.03843  0.000797875
      5.91835   0.00098985
      5.79827   0.00122676
      5.67819   0.00151877
       5.5581   0.00187828
      5.43802    0.0023203
      5.31794   0.00286308
      5.19786   0.00352864
