Temperature = 300K
THERMAL DISTRIBUTIONS:
  E, kcal/mol           W0           W1           W2           W3           W4          W5t          W5c           S1
      34.9354   0.00235745   0.00146614   0.00235745  0.000993619  3.25929e-07  2.40573e-07  2.47875e-07  1.84663e-07
      34.8153   0.00283053   0.00176037   0.00283053   0.00119306  3.96405e-07   2.9157e-07  3.00233e-07  2.22742e-07
      34.6953   0.00339836   0.00211353   0.00339836   0.00143244  4.82118e-07  3.53364e-07  3.63646e-07   2.6863e-07
      34.5752   0.00407988   0.00253741   0.00407988   0.00171977   5.8636e-07  4.28254e-07  4.40445e-07  3.24065e-07
      34.4551   0.00489779   0.00304613   0.00489779   0.00206462  7.13138e-07  5.19022e-07  5.33456e-07  3.90927e-07
       34.335   0.00587936   0.00365663   0.00587936   0.00247848  8.67321e-07  6.28991e-07  6.46097e-07  4.71616e-07
      34.2149   0.00705725   0.00438925   0.00705725   0.00297513  1.05483e-06  7.62264e-07  7.82521e-07  5.68966e-07
      34.0949   0.00847064   0.00526836   0.00847064   0.00357111  1.28288e-06  9.23758e-07  9.47726e-07  6.86389e-07
      33.9748    0.0101665   0.00632319    0.0101665   0.00428622  1.56022e-06  1.11945e-06   1.1478e-06  8.27863e-07
      33.8547    0.0122012   0.00758877    0.0122012   0.00514426  1.89751e-06  1.35662e-06  1.39007e-06  9.98435e-07
      33.7346    0.0146424   0.00910715    0.0146424   0.00617371  2.30771e-06  1.64395e-06  1.68348e-06  1.20415e-06
      33.6145    0.0175709    0.0109287    0.0175709   0.00740874  2.80657e-06  1.99214e-06  2.03879e-06  1.45196e-06
      33.4944    0.0210839    0.0131138    0.0210839   0.00889032  3.41326e-06  2.41406e-06  2.46905e-06  1.75077e-06
      33.3744    0.0252977    0.0157349    0.0252977    0.0106676  4.15106e-06  2.92524e-06  2.99007e-06  2.11064e-06
      33.2543     0.030352    0.0188788     0.030352    0.0127994  5.04832e-06  3.54475e-06  3.62098e-06  2.54409e-06
      33.1342     0.036414    0.0226496     0.036414    0.0153563  6.13949e-06   4.2953e-06  4.38492e-06  3.06622e-06
      33.0141    0.0436841    0.0271718    0.0436841    0.0184229  7.46648e-06  5.20461e-06  5.30991e-06  3.69633e-06
       32.894    0.0524025    0.0325951    0.0524025    0.0221006  9.08023e-06  6.30652e-06  6.43005e-06  4.45561e-06
      32.7739    0.0628572    0.0390984    0.0628572    0.0265108  1.10427e-05  7.64147e-06  7.78627e-06  5.37246e-06
      32.6539    0.0753931    0.0468965    0.0753931    0.0317993  1.34292e-05  9.25909e-06  9.42852e-06  6.47744e-06
      32.5338    0.0904235    0.0562464    0.0904235    0.0381403  1.63314e-05   1.1219e-05  1.14167e-05   7.8092e-06
      32.4137     0.108444    0.0674562     0.108444    0.0457431  1.98607e-05  1.35931e-05  1.38241e-05   9.4128e-06
      32.2936     0.130047    0.0808953     0.130047    0.0548579  2.41526e-05  1.64698e-05  1.67387e-05  1.13475e-05
      32.1735     0.155945    0.0970057     0.155945     0.065785  2.93719e-05  1.99549e-05  2.02677e-05  1.36764e-05
      32.0534     0.186988     0.116317     0.186988    0.0788837  3.57188e-05  2.41769e-05  2.45401e-05  1.64852e-05
      31.9334     0.224197     0.139465     0.224197    0.0945846  4.34371e-05  2.92929e-05  2.97126e-05  1.98702e-05
      31.8133     0.268793     0.167208     0.268793     0.113403  5.28229e-05  3.54896e-05  3.59748e-05  2.39415e-05
      31.6932     0.322239     0.200457     0.322239     0.135958  6.42365e-05  4.29966e-05  4.35559e-05  2.88414e-05
      31.5731     0.386287     0.240302     0.386287     0.162988  7.81158e-05  5.20914e-05   5.2734e-05  3.47472e-05
       31.453     0.463036     0.288049     0.463036     0.195379  9.49935e-05  6.31085e-05  6.38445e-05  4.18538e-05
       31.333     0.554997     0.345261     0.554997     0.234192  0.000115517  7.64566e-05  7.72959e-05   5.0433e-05
      31.2129     0.665179     0.413809     0.665179     0.280698  0.000140474  9.26236e-05  9.35777e-05  6.07784e-05
      31.0928     0.797182     0.495934     0.797182     0.336416  0.000170821  0.000112208  0.000113289  7.32486e-05
      30.9727     0.955318     0.594318     0.955318     0.403168  0.000207724  0.000135934  0.000137148  8.82834e-05
      30.8526      1.14475     0.712173      1.14475     0.483133  0.000252597  0.000164669  0.000166033  0.000106399
      30.7325      1.37165      0.85334      1.37165     0.578918  0.000307162  0.000199482  0.000200996  0.000128229
      30.6125      1.64341      1.02242      1.64341     0.693649  0.000373512   0.00024165   0.00024332   0.00015454
      30.4924      1.96888      1.22492      1.96888      0.83106  0.000454193   0.00029272  0.000294547  0.000186247
      30.3723      2.35864      1.46743      2.35864     0.995625  0.000552298  0.000354587  0.000356555  0.000224433
      30.2522      2.82537      1.75782      2.82537      1.19269  0.000671592   0.00042951  0.000431607  0.000270353
      30.1321      3.38423      2.10554      3.38423      1.42867  0.000816649  0.000520275  0.000522449  0.000325715
       30.012      4.05334      2.52187      4.05334      1.71122   0.00099303  0.000630214  0.000632416  0.000392221
       29.892       4.8544       3.0203       4.8544       2.0495    0.0012075  0.000763335  0.000765501  0.000472409
      29.7719      5.81336      3.61698      5.81336      2.45448   0.00146828  0.000924596  0.000926597  0.000568934
      29.6518      6.96126      4.33124      6.96126      2.93928   0.00178537   0.00111989   0.00112155  0.000685244
      29.5317      8.33523      5.18617      8.33523      3.51958   0.00217093   0.00135642   0.00135752   0.00082523
      29.4116      9.97966       6.2094      9.97966      4.21415   0.00263973   0.00164294   0.00164307  0.000994252
      29.2916      11.9476      7.43398      11.9476      5.04541   0.00320975   0.00198987   0.00198871   0.00119757
      29.1715      14.3027      8.89941      14.3027      6.04021   0.00390284   0.00241003   0.00240698   0.00144283
      29.0514      17.1206      10.6529      17.1206      7.23062   0.00474555    0.0029189   0.00291315    0.0017378
      28.9313      20.4922       12.751      20.4922        8.655    0.0057702   0.00353512   0.00352568   0.00209314
      28.8112       24.526      15.2612       24.526      10.3592   0.00701606   0.00428155     0.004267   0.00251982
      28.6911      29.3516      18.2641      29.3516       12.398   0.00853089   0.00518531   0.00516407   0.00303483
      28.5711       35.124      21.8562       35.124       14.837    0.0103727   0.00627965   0.00624954   0.00365318
       28.451      42.0284      26.1528      42.0284      17.7544    0.0126122   0.00760515   0.00756313   0.00439782
      28.3309       50.286      31.2917       50.286      21.2438     0.015335   0.00921008   0.00915255   0.00529252
      28.2108      60.1615      37.4374      60.1615      25.4171    0.0186456    0.0111536    0.0110759   0.00636805
      28.0907      71.9707      44.7866      71.9707      30.4078    0.0226707    0.0135072    0.0134028   0.00765962
      27.9706      86.0913      53.5744      86.0913      36.3757    0.0275646    0.0163565    0.0162189   0.00921704
      27.8506      102.974      64.0813      102.974      43.5112    0.0335148    0.0198073    0.0196261    0.0110898
      27.7305      123.158      76.6426      123.158      52.0425    0.0407491    0.0239851    0.0237485    0.0133495
      27.6104      147.286       91.659      147.286      62.2414    0.0495446    0.0290441    0.0287359    0.0160726
      27.4903      176.126      109.608      176.126      74.4332    0.0602381    0.0351706    0.0347707    0.0193507
      27.3702      210.597      131.062      210.597      89.0055    0.0732394    0.0425861    0.0420719    0.0232881
      27.2501      251.793      156.702      251.793      106.422    0.0890463    0.0515659    0.0509049    0.0280318
      27.1301      301.023      187.343      301.023      127.237     0.108264    0.0624378    0.0615924    0.0337396
        27.01      359.848      223.956      359.848      152.109     0.131629    0.0756003    0.0745224    0.0406092
      26.8899      430.133      267.702      430.133      181.829     0.160036    0.0915396    0.0901654    0.0488812
      26.7698      514.101      319.966      514.101      217.337     0.194573     0.110832     0.109087    0.0588248
      26.6497      614.409      382.401      614.409      259.756     0.236561     0.134191      0.13198    0.0707345
      26.5297      734.225       456.98      734.225      310.429     0.287608      0.16247     0.159672    0.0850816
      26.4096      877.329      546.055      877.329      370.954     0.349669     0.196701     0.193179     0.102318
      26.2895      1048.23      652.436      1048.23      443.241     0.425119     0.238154     0.233704     0.123067
      26.1694      1252.32      779.474      1252.32      529.569     0.516845     0.288327      0.28273     0.148094
      26.0493      1496.01      931.163      1496.01      632.654     0.628357     0.349056     0.342031     0.178242
      25.9292      1786.96      1112.27      1786.96      755.738     0.763925     0.422588     0.413768      0.21447
      25.8092      2134.29      1328.49      2134.29      902.687     0.928735     0.511587     0.500535     0.258177
      25.6891      2548.91      1586.59      2548.91      1078.11       1.1291     0.619341     0.605489     0.310636
       25.569       3043.8      1894.67       3043.8      1287.51      1.37267     0.749773     0.732441     0.373791
      25.4489      3634.43      2262.35      3634.43      1537.44      1.66879     0.907621     0.885975     0.449745
      25.3288      4339.27      2701.14      4339.27      1835.71      2.02877      1.09873      1.07169     0.541216
      25.2087      5180.31      3224.73      5180.31      2191.64      2.46641      1.33003      1.29627     0.650885
      25.0887      6183.78      3849.44      6183.78      2616.34      2.99842      1.60999      1.56795     0.782871
      24.9686      7380.92      4594.74      7380.92      3123.05      3.64518      1.94897      1.89646     0.941063
      24.8485      8808.96       5483.8      8808.96      3727.52      4.43142       2.3591      2.29378      1.13107
      24.7284      10512.3      6544.26      10512.3      4448.57       5.3872      2.85551      2.77423      1.35935
      24.6083      12543.7      7809.03      12543.7      5308.56      6.54908      3.45641      3.35534      1.63397
      24.4883      14966.3      9317.33      14966.3      6334.21      7.96152      4.18361      4.05797      1.96324
      24.3682      17854.9      11115.8      17854.9      7557.23      9.67848      5.06393      4.90772       2.3599
      24.2481      21298.9      13260.1      21298.9      9015.55      11.7657      6.12907      5.93527      2.83706
       24.128      25404.6      15816.5      25404.6      10754.1      14.3028      7.41821      7.17784      3.41104
      24.0079      30298.7      18863.8      30298.7      12826.8      17.3871       8.9786      8.68032       4.1012
      23.8878      36131.8      22495.9      36131.8      15297.2      21.1362      10.8664      10.4969      4.93075
      23.7678      43083.5      26824.5      43083.5      18241.6      25.6936      13.1517      12.6938      5.92486
      23.6477      51367.3      31982.6      51367.3      21750.4      31.2336      15.9168      15.3499      7.11968
      23.5276      61237.4      38128.7      61237.4      25931.5      37.9681      19.2625      18.5619      8.55664
      23.4075      72996.1      45450.8      72996.1      30912.9      46.1543      23.3119      22.4449      10.2793
      23.2874      87003.3      54173.3      87003.3      36847.5      56.1052      28.2109      27.1407      12.3471
      23.1673       103687      64562.9       103687      43916.4       68.201      34.1405      32.8169      14.8293
      23.0473       123557      76936.3       123557      52335.9      82.9041      41.3154      39.6806      17.7956
      22.9272       147218      91671.1       147218      62362.5      100.776      49.9946      47.9784      21.3652
      22.8071       175390       109216       175390        74302      122.501      60.4991      58.0109      25.6584
       22.687       208930       130103       208930      88517.2      148.907      73.2067      70.1395      30.8198
      22.5669       248856       154969       248856       105440      181.004      88.5832      84.8009      37.0514
      22.4468       296377       184565       296377       125584      220.018      107.193      102.527      44.5414
      22.3268       352931       219787       352931       149560      267.439      129.703      123.953      53.5291
      22.2067       420229       261702       420229       178091       325.08      156.937       149.86      64.3181
      22.0866       500299       311572       500299       212042      395.142      189.889      181.171      77.2817
      21.9665       595556       370902       595556       252433      480.302      229.752      219.025      92.8563
      21.8464       708864       441477       708864       300484      583.813      277.997      264.771      111.587
      21.7264       843626       525416       843626       357636      709.627      336.342      320.078      134.082
      21.6063  1.00389e+06       625239  1.00389e+06       425610       862.55      406.918      386.911      160.985
      21.4862  1.19444e+06       743937  1.19444e+06       506437      1048.42      492.332      467.701      193.181
      21.3661  1.42099e+06       885055  1.42099e+06       602544      1274.34      595.629      565.343      231.887
       21.246   1.6903e+06  1.05281e+06   1.6903e+06       716795      1548.92      720.607       683.36      278.195
      21.1259  2.01039e+06  1.25221e+06  2.01039e+06       852603      1882.67      871.797      825.984      334.103
      21.0059  2.39079e+06  1.48917e+06  2.39079e+06  1.01402e+06      2288.29      1054.64      998.344      401.297
      20.8858  2.84279e+06  1.77076e+06  2.84279e+06  1.20583e+06      2781.29      1275.86      1206.67      481.966
      20.7657  3.37982e+06  2.10532e+06  3.37982e+06  1.43374e+06      3380.48      1543.41      1458.38      578.826
      20.6456  4.01776e+06  2.50274e+06  4.01776e+06   1.7045e+06      4108.74       1867.1      1762.65      695.083
      20.5255  4.77548e+06  2.97482e+06  4.77548e+06  2.02614e+06      4993.85      2258.65      2130.21      834.295
      20.4054  5.67534e+06  3.53544e+06  5.67534e+06  2.40813e+06      6069.61      2732.06      2574.53      1001.74
      20.2854  6.74384e+06  4.20115e+06  6.74384e+06  2.86178e+06      7377.06      3304.79      3111.27      1202.67
      20.1653  8.01242e+06  4.99155e+06  8.01242e+06  3.40039e+06      8966.12      3997.45      3759.99      1443.03
      20.0452  9.51831e+06  5.92978e+06  9.51831e+06  4.03985e+06      10897.4      4835.16      4543.75      1730.87
      19.9251  1.13056e+07  7.04344e+06  1.13056e+07  4.79886e+06      13244.7      5848.62      5490.93      2075.46
       19.805  1.34267e+07  8.36507e+06  1.34267e+07  5.69973e+06      16097.3      7073.92      6635.12      2486.25
       19.685  1.59434e+07   9.9332e+06  1.59434e+07  6.76869e+06      19564.4      8555.96      8017.92      2979.28
      19.5649  1.89291e+07  1.17937e+07  1.89291e+07  8.03704e+06      23777.9      10348.2      9688.64      3569.69
      19.4448  2.24707e+07  1.40006e+07  2.24707e+07  9.54161e+06      28898.6      12515.3        11707      4276.55
      19.3247   2.6671e+07   1.6618e+07   2.6671e+07  1.13263e+07        35122        15137      14146.2      5123.68
      19.2046  3.16517e+07  1.97218e+07  3.16517e+07  1.34426e+07      42685.2      18306.6      17092.8      6146.05
      19.0845  3.75568e+07  2.34018e+07  3.75568e+07  1.59522e+07      51876.6      22138.8      20652.9      7371.26
      18.9645  4.45569e+07  2.77642e+07  4.45569e+07  1.89273e+07      63046.9      26774.5      24952.8      8847.54
      18.8444  5.28535e+07   3.2935e+07  5.28535e+07  2.24539e+07      76621.8      32378.3      30149.2      10610.6
      18.7243  6.26853e+07  3.90622e+07  6.26853e+07  2.66333e+07      93119.2      39156.7      36425.3      12732.2
      18.6042  7.43343e+07  4.63225e+07  7.43343e+07  3.15861e+07       113168      47352.4      44007.9      15255.1
      18.4841  8.81341e+07  5.49237e+07  8.81341e+07  3.74535e+07       137533      57258.6        53165      18304.1
       18.364  1.04479e+08  6.51107e+07  1.04479e+08  4.44043e+07       167143      69240.8      64230.6      21943.8
       18.244  1.23835e+08  7.71756e+07  1.23835e+08  5.26359e+07       203127      83723.8      77594.6        26307
      18.1239  1.46753e+08   9.1461e+07  1.46753e+08  6.23844e+07       246856       101238      93734.2      31513.2
      18.0038  1.73884e+08  1.08372e+08  1.73884e+08  7.39246e+07       299996       122423       113230      37758.7
      17.8837  2.05995e+08   1.2839e+08  2.05995e+08   8.7587e+07       364573       148020       136776      45154.7
      17.7636  2.43996e+08  1.52078e+08  2.43996e+08  1.03755e+08       443048       178969       165216      54130.1
      17.6435  2.88958e+08  1.80105e+08  2.88958e+08  1.22889e+08       538411       216393       199556      64860.4
      17.5235  3.42145e+08  2.13265e+08  3.42145e+08  1.45523e+08       654295       261633       241048      77836.5
      17.4034  4.05051e+08   2.5248e+08  4.05051e+08    1.723e+08       795111       316335       291136      93455.1
      17.2833  4.79438e+08  2.98857e+08  4.79438e+08  2.03964e+08       966228       382441       351638       112143
      17.1632  5.67384e+08   3.5369e+08  5.67384e+08  2.41407e+08  1.17416e+06       462367       424683       134362
      17.0431   6.7134e+08    4.185e+08   6.7134e+08  2.85671e+08  1.42684e+06       558991       512924       161090
      16.9231  7.94197e+08  4.95104e+08  7.94197e+08   3.3799e+08  1.73389e+06       675753       619434       193084
       16.803  9.39362e+08  5.85619e+08  9.39362e+08  3.99817e+08    2.107e+06       816957       748063       231504
      16.6829  1.11085e+09  6.92542e+08  1.11085e+09  4.72864e+08  2.56038e+06       987597       903408       277628
      16.5628  1.31339e+09  8.18848e+08  1.31339e+09  5.59151e+08   3.1113e+06  1.19381e+06  1.09098e+06       332665
      16.4427  1.55256e+09  9.67989e+08  1.55256e+09  6.61056e+08  3.78074e+06  1.44314e+06  1.31744e+06       397754
      16.3226  1.83493e+09  1.14407e+09  1.83493e+09  7.81378e+08   4.5942e+06  1.74443e+06  1.59082e+06       475943
      16.2026  2.16822e+09  1.35193e+09  2.16822e+09  9.23429e+08  5.58263e+06  2.10866e+06    1.921e+06       568876
      16.0825  2.56152e+09   1.5972e+09  2.56152e+09  1.09107e+09  6.78367e+06  2.54887e+06  2.31949e+06       680428
      15.9624  3.02555e+09   1.8866e+09  3.02555e+09   1.2889e+09  8.24301e+06  3.08075e+06  2.80082e+06       814401
      15.8423   3.5729e+09    2.228e+09   3.5729e+09  1.52227e+09  1.00162e+07  3.72378e+06  3.38172e+06       975387
      15.7222  4.21839e+09  2.63056e+09  4.21839e+09  1.79753e+09  1.21708e+07  4.50058e+06  4.08335e+06   1.1666e+06
      15.6021  4.97943e+09  3.10526e+09  4.97943e+09  2.12211e+09  1.47887e+07  5.43957e+06  4.92995e+06  1.39732e+06
      15.4821  5.87652e+09  3.66487e+09  5.87652e+09  2.50476e+09  1.79696e+07  6.57488e+06  5.95236e+06  1.67094e+06
       15.362  6.93371e+09  4.32424e+09  6.93371e+09  2.95583e+09  2.18345e+07  7.94592e+06  7.18642e+06  1.99968e+06
      15.2419  8.17928e+09  5.10128e+09  8.17928e+09  3.48726e+09  2.65306e+07  9.60306e+06  8.67623e+06  2.39274e+06
      15.1218  9.64646e+09  6.01657e+09  9.64646e+09  4.11345e+09  3.22366e+07  1.16053e+07  1.04743e+07  2.86545e+06
      15.0017  1.13742e+10  7.09434e+09  1.13742e+10  4.85081e+09  3.91697e+07  1.40248e+07  1.26449e+07  3.42511e+06
      14.8817  1.34084e+10  8.36356e+09  1.34084e+10  5.71928e+09  4.75935e+07    1.695e+07  1.52651e+07  4.09543e+06
