pressure[atm]        = 0.1
temperature[K]       = 200
energy step[1/cm]    = 42
maximum energy[1/cm] = 4205

Bimolecular-to-bimolecular product energy distributions:
  E, kcal/mol       P0->P1
      12.0225  7.57686e-09
      11.9025  9.69737e-09
      11.7824  1.24066e-08
      11.6623  1.58666e-08
      11.5422  2.02835e-08
      11.4221  2.59197e-08
       11.302  3.31087e-08
       11.182  4.22743e-08
      11.0619  5.39548e-08
      10.9418  6.88335e-08
      10.8217  8.77776e-08
      10.7016  1.11887e-07
      10.5816  1.42554e-07
      10.4615  1.81546e-07
      10.3414  2.31098e-07
      10.2213  2.94039e-07
      10.1012  3.73945e-07
      9.98114   4.7534e-07
      9.86106  6.03936e-07
      9.74098  7.66943e-07
      9.62089  9.73458e-07
      9.50081  1.23495e-06
      9.38073  1.56586e-06
      9.26065  1.98439e-06
      9.14056   2.5134e-06
      9.02048  3.18166e-06
       8.9004  4.02528e-06
      8.78032  5.08958e-06
      8.66023  6.43135e-06
      8.54015   8.1218e-06
      8.42007    1.025e-05
      8.29999  1.29274e-05
       8.1799  1.62932e-05
      8.05982  2.05213e-05
      7.93974  2.58284e-05
      7.81966  3.24847e-05
      7.69957  4.08263e-05
      7.57949  5.12713e-05
      7.45941   6.4339e-05
      7.33933  8.06736e-05
      7.21925  0.000101074
      7.09916  0.000126527
      6.97908  0.000158258
        6.859  0.000197774
      6.73892  0.000246942
      6.61883  0.000308057
      6.49875  0.000383949
      6.37867  0.000478094
      6.25859  0.000594763
       6.1385  0.000739193
      6.01842  0.000917796
      5.89834   0.00113841
      5.77826   0.00141061
      5.65817   0.00174605
      5.53809   0.00215893
      5.41801   0.00266646
      5.29793   0.00328952
      5.17784   0.00405332
      5.05776   0.00498827
      4.93768   0.00613099
       4.8176    0.0075254
      4.69751   0.00922405
      4.57743    0.0112896
      4.45735    0.0137964
      4.33727    0.0168326
      4.21718     0.020502
       4.0971    0.0249267
      3.97702    0.0302488
      3.85694    0.0366332
      3.73685    0.0442697
      3.61677    0.0533749
      3.49669    0.0641947
      3.37661    0.0770057
      3.25652    0.0921167
      3.13644     0.109868
      3.01636     0.130628
      2.89628      0.15479
      2.77619     0.182763
      2.65611     0.214962
      2.53603     0.251786
      2.41595     0.293602
      2.29586     0.340705
      2.17578     0.393281
       2.0557     0.451351
      1.93562     0.514698
      1.81553     0.582775
      1.69545     0.654586
      1.57537     0.728531
      1.45529     0.802205
       1.3352     0.872127
      1.21512     0.933384
      1.09504     0.979141
     0.974955            1
     0.854873     0.983285
      0.73479     0.912794
     0.614708     0.771157
     0.494626     0.551108
     0.374543     0.285051
     0.254461    0.0727146
     0.134378   0.00329555
    0.0142955   0.00140828
    -0.105787   0.00080126
    -0.225869  0.000456607
    -0.345952  0.000260727
    -0.466034  0.000149254
    -0.586117  8.57126e-05
    -0.706199  4.94169e-05
    -0.826282  2.86232e-05
    -0.946364   1.6661e-05
     -1.06645  9.74202e-06
     -1.18653  5.71162e-06
     -1.30661  3.34589e-06
     -1.42669  1.94945e-06
     -1.54678  1.12397e-06
     -1.66686  6.38967e-07
     -1.78694  3.57047e-07
     -1.90702  1.95602e-07
     -2.02711  1.04779e-07
     -2.14719  5.46817e-08
     -2.26727  2.77371e-08
     -2.38735  1.36111e-08
     -2.50744  6.43187e-09
     -2.62752  2.90494e-09
      -2.7476  1.24103e-09
     -2.86768  4.96382e-10
     -2.98777  1.82315e-10
     -3.10785   5.9813e-11
     -3.22793  1.66014e-11
     -3.34801  3.45062e-12
      -3.4681  3.26967e-13
     -3.58818 -9.70851e-14
     -3.70826 -4.61834e-14
     -3.82834 -4.24096e-15

Well-to-bimolecular product energy distributions:
  E, kcal/mol       W0->P0       W0->P1
      12.0225  1.13481e-12  1.64633e-17
      11.9025 -1.86245e-12 -2.67373e-17
      11.7824 -2.02693e-12 -2.87934e-17
      11.6623  1.31407e-12  1.84702e-17
      11.5422  1.80655e-13  2.51237e-18
      11.4221 -3.15271e-12 -4.33784e-17
       11.302  3.35286e-12  4.56392e-17
       11.182  2.84077e-12  3.82533e-17
      11.0619 -3.26547e-12 -4.34974e-17
      10.9418  3.25024e-12  4.28244e-17
      10.8217 -2.15317e-12   -2.806e-17
      10.7016 -1.18057e-13 -1.52163e-18
      10.5816 -1.18543e-12 -1.51102e-17
      10.4615  3.32729e-12  4.19407e-17
      10.3414  6.49058e-12  8.08995e-17
      10.2213  3.18326e-12  3.92302e-17
      10.1012  4.88511e-12  5.95212e-17
      9.98114 -1.53319e-11 -1.84673e-16
      9.86106  1.62528e-11  1.93511e-16
      9.74098  1.14992e-11  1.35323e-16
      9.62089 -2.08422e-11 -2.42397e-16
      9.50081  -2.9524e-12  -3.3931e-17
      9.38073  1.01493e-11  1.15253e-16
      9.26065  4.68126e-11  5.25202e-16
      9.14056 -8.17002e-12 -9.05513e-17
      9.02048 -7.95561e-12 -8.70997e-17
       8.9004  3.00786e-11  3.25268e-16
      8.78032  1.00199e-12  1.07021e-17
      8.66023 -3.32081e-11 -3.50306e-16
      8.54015   -2.173e-11 -2.26389e-16
      8.42007 -1.64648e-10  -1.6941e-15
      8.29999  1.12094e-11  1.13907e-16
       8.1799  3.84364e-11  3.85738e-16
      8.05982 -9.56875e-12 -9.48405e-17
      7.93974 -1.11431e-10 -1.09079e-15
      7.81966 -7.32445e-11 -7.08137e-16
      7.69957 -2.26535e-11  -2.1632e-16
      7.57949  1.44422e-10  1.36217e-15
      7.45941  3.33404e-11  3.10614e-16
      7.33933  9.96235e-11  9.16832e-16
      7.21925 -1.47268e-10 -1.33888e-15
      7.09916 -5.03692e-10 -4.52413e-15
      6.97908   -1.958e-10 -1.73761e-15
        6.859  2.11044e-10  1.85059e-15
      6.73892 -3.54097e-10 -3.06818e-15
      6.61883  2.80835e-10  2.40461e-15
      6.49875 -3.26441e-10 -2.76207e-15
      6.37867  1.10437e-09  9.23371e-15
      6.25859   8.6453e-10  7.14247e-15
       6.1385 -4.16297e-10  -3.3982e-15
      6.01842  8.05528e-11  6.49619e-16
      5.89834 -1.88708e-09  -1.5033e-14
      5.77826  5.22205e-10  4.10874e-15
      5.65817 -1.88174e-10 -1.46206e-15
      5.53809 -6.17705e-10 -4.73853e-15
      5.41801  2.05108e-09  1.55318e-14
      5.29793 -7.37304e-10 -5.51038e-15
      5.17784  9.26829e-10   6.8353e-15
      5.05776  1.62596e-09  1.18312e-14
      4.93768  1.79577e-09  1.28904e-14
       4.8176   2.8285e-10  2.00268e-15
      4.69751 -8.40843e-10 -5.87171e-15
      4.57743 -4.85934e-09 -3.34657e-14
      4.45735  4.85021e-09  3.29435e-14
      4.33727   9.6694e-09  6.47793e-14
      4.21718 -7.45357e-09 -4.92604e-14
       4.0971  -3.8866e-09 -2.53459e-14
      3.97702  1.00165e-08  6.44804e-14
      3.85694 -4.18683e-10 -2.66205e-15
      3.73685 -7.38231e-09 -4.63981e-14
      3.61677  6.88265e-09  4.28075e-14
      3.49669 -4.72636e-09 -2.91299e-14
      3.37661 -1.29087e-10 -7.89661e-16
      3.25652  6.51755e-09  3.96429e-14
      3.13644 -3.38871e-09 -2.05349e-14
      3.01636  5.96879e-09  3.61136e-14
      2.89628   3.6086e-08  2.18525e-13
      2.77619  8.09282e-08  4.91836e-13
      2.65611  2.68763e-07  1.64427e-12
      2.53603  7.40497e-07  4.57623e-12
      2.41595  2.20143e-06  1.37967e-11
      2.29586  6.20849e-06  3.96367e-11
      2.17578  1.74757e-05  1.14246e-10
       2.0557   4.7688e-05  3.21162e-10
      1.93562  0.000124775  8.71793e-10
      1.81553  0.000313727   2.2931e-09
      1.69545  0.000758995  5.86131e-09
      1.57537   0.00177517  1.46571e-08
      1.45529   0.00403843  3.61703e-08
       1.3352   0.00898282  8.88427e-08
      1.21512     0.019593   2.1881e-07
      1.09504    0.0418938  5.43544e-07
     0.974955    0.0875236  1.36925e-06
     0.854873     0.177026  3.51086e-06
      0.73479     0.340706  9.18748e-06
     0.614708      0.60237  2.44871e-05
     0.494626     0.908976  6.56195e-05
     0.374543            1  0.000171839
     0.254461     0.533441  0.000420565
     0.134378     0.014056   0.00094155
    0.0142955            0    0.0020239
    -0.105787            0   0.00431155
    -0.225869            0   0.00909165
    -0.345952            0    0.0188848
    -0.466034            0    0.0384285
    -0.586117            0    0.0758978
    -0.706199            0     0.143402
    -0.826282            0     0.254795
    -0.946364            0     0.417479
     -1.06645            0      0.61805
     -1.18653            0     0.815366
     -1.30661            0     0.955062
     -1.42669            0            1
     -1.54678            0     0.949217
     -1.66686            0     0.828682
     -1.78694            0     0.674809
     -1.90702            0     0.518376
     -2.02711            0     0.378812
     -2.14719            0     0.264899
     -2.26727            0     0.177775
     -2.38735            0     0.114686
     -2.50744            0    0.0710975
     -2.62752            0    0.0422877
      -2.7476            0    0.0240538
     -2.86768            0    0.0130144
     -2.98777            0   0.00664878
     -3.10785            0    0.0031731
     -3.22793            0   0.00139277
     -3.34801            0  0.000549045
      -3.4681            0   0.00018685
     -3.58818            0   5.1025e-05
     -3.70826            0  9.51426e-06
     -3.82834            0  5.85622e-07

pressure[atm]        = 1
temperature[K]       = 200
energy step[1/cm]    = 42
maximum energy[1/cm] = 4205

Bimolecular-to-bimolecular product energy distributions:
  E, kcal/mol       P0->P1
      12.0225  7.59725e-09
      11.9025  9.72346e-09
      11.7824    1.244e-08
      11.6623  1.59093e-08
      11.5422  2.03381e-08
      11.4221  2.59895e-08
       11.302  3.31978e-08
       11.182   4.2388e-08
      11.0619     5.41e-08
      10.9418  6.90187e-08
      10.8217  8.80138e-08
      10.7016  1.12188e-07
      10.5816  1.42938e-07
      10.4615  1.82035e-07
      10.3414   2.3172e-07
      10.2213   2.9483e-07
      10.1012  3.74951e-07
      9.98114  4.76619e-07
      9.86106  6.05561e-07
      9.74098  7.69006e-07
      9.62089  9.76077e-07
      9.50081  1.23827e-06
      9.38073  1.57008e-06
      9.26065  1.98973e-06
      9.14056  2.52017e-06
      9.02048  3.19022e-06
       8.9004  4.03611e-06
      8.78032  5.10327e-06
      8.66023  6.44866e-06
      8.54015  8.14365e-06
      8.42007  1.02776e-05
      8.29999  1.29622e-05
       8.1799  1.63371e-05
      8.05982  2.05765e-05
      7.93974  2.58979e-05
      7.81966  3.25721e-05
      7.69957  4.09361e-05
      7.57949  5.14093e-05
      7.45941  6.45121e-05
      7.33933  8.08907e-05
      7.21925  0.000101346
      7.09916  0.000126868
      6.97908  0.000158683
        6.859  0.000198307
      6.73892  0.000247606
      6.61883  0.000308886
      6.49875  0.000384982
      6.37867   0.00047938
      6.25859  0.000596364
       6.1385  0.000741182
      6.01842  0.000920265
      5.89834   0.00114147
      5.77826    0.0014144
      5.65817   0.00175075
      5.53809   0.00216474
      5.41801   0.00267364
      5.29793   0.00329838
      5.17784   0.00406423
      5.05776    0.0050017
      4.93768   0.00614749
       4.8176   0.00754565
      4.69751   0.00924887
      4.57743      0.01132
      4.45735    0.0138335
      4.33727    0.0168779
      4.21718    0.0205572
       4.0971    0.0249937
      3.97702    0.0303302
      3.85694    0.0367318
      3.73685    0.0443888
      3.61677    0.0535184
      3.49669    0.0643673
      3.37661    0.0772127
      3.25652    0.0923643
      3.13644     0.110163
      3.01636     0.130979
      2.89628     0.155205
      2.77619     0.183253
      2.65611     0.215538
      2.53603      0.25246
      2.41595     0.294386
      2.29586     0.341613
      2.17578     0.394325
       2.0557     0.452543
      1.93562     0.516047
      1.81553     0.584283
      1.69545     0.656247
      1.57537     0.730322
      1.45529     0.804073
       1.3352     0.873969
      1.21512     0.935012
      1.09504     0.980226
     0.974955            1
     0.854873     0.981409
      0.73479     0.908198
     0.614708     0.763969
     0.494626     0.545045
     0.374543     0.289143
     0.254461    0.0915506
     0.134378    0.0227537
    0.0142955    0.0131936
    -0.105787   0.00793108
    -0.225869   0.00481402
    -0.345952   0.00295312
    -0.466034   0.00183022
    -0.586117   0.00114353
    -0.706199   0.00071729
    -0.826282  0.000449011
    -0.946364  0.000278841
     -1.06645  0.000171099
     -1.18653  0.000103506
     -1.30661  6.16739e-05
     -1.42669  3.61757e-05
     -1.54678  2.08645e-05
     -1.66686  1.18256e-05
     -1.78694  6.57759e-06
     -1.90702  3.58393e-06
     -2.02711  1.90828e-06
     -2.14719  9.89112e-07
     -2.26727  4.97735e-07
     -2.38735  2.41873e-07
     -2.50744  1.12888e-07
     -2.62752   5.0155e-08
      -2.7476  2.09438e-08
     -2.86768  8.10499e-09
     -2.98777  2.82774e-09
     -3.10785  8.48868e-10
     -3.22793   1.9502e-10
     -3.34801  1.99964e-11
      -3.4681 -8.76487e-12
     -3.58818 -5.81625e-12
     -3.70826 -1.59995e-12
     -3.82834 -1.24135e-13

Well-to-bimolecular product energy distributions:
  E, kcal/mol       W0->P0       W0->P1
      12.0225 -4.66627e-16 -3.03514e-19
      11.9025 -2.41442e-15 -1.55403e-18
      11.7824 -1.05934e-16 -6.74688e-20
      11.6623  1.59123e-15  1.00277e-18
      11.5422  2.36545e-15  1.47489e-18
      11.4221 -2.25887e-16 -1.39346e-19
       11.302 -5.20705e-15 -3.17782e-18
       11.182  8.73662e-15  5.27461e-18
      11.0619  6.82943e-15  4.07864e-18
      10.9418 -5.18081e-15 -3.06047e-18
      10.8217 -5.23846e-16 -3.06074e-19
      10.7016  1.49088e-14  8.61535e-18
      10.5816  6.13472e-15  3.50593e-18
      10.4615  2.94041e-15  1.66175e-18
      10.3414  6.01901e-15  3.36358e-18
      10.2213 -1.21819e-15 -6.73096e-19
      10.1012 -5.14279e-16 -2.80938e-19
      9.98114  1.12546e-14  6.07787e-18
      9.86106 -7.58717e-15 -4.05015e-18
      9.74098  2.50763e-15  1.32306e-18
      9.62089 -7.58022e-14 -3.95257e-17
      9.50081  2.21693e-15  1.14232e-18
      9.38073  4.62623e-14  2.35535e-17
      9.26065  4.09128e-15  2.05795e-18
      9.14056 -9.08176e-14  -4.5129e-17
      9.02048 -8.72679e-14 -4.28362e-17
       8.9004  -2.7001e-14 -1.30911e-17
      8.78032 -3.79799e-15 -1.81874e-18
      8.66023  1.08017e-13   5.1087e-17
      8.54015 -1.44372e-14 -6.74363e-18
      8.42007 -4.26109e-14  -1.9657e-17
      8.29999   6.1749e-14  2.81326e-17
       8.1799 -2.72112e-14 -1.22437e-17
      8.05982 -3.68269e-13  -1.6365e-16
      7.93974 -2.95498e-14 -1.29689e-17
      7.81966 -2.38004e-14 -1.03167e-17
      7.69957 -3.11037e-13 -1.33164e-16
      7.57949  -2.4579e-13 -1.03938e-16
      7.45941  9.96362e-14   4.1618e-17
      7.33933  2.96528e-14  1.22351e-17
      7.21925  2.56342e-13  1.04488e-16
      7.09916 -3.77339e-13 -1.51956e-16
      6.97908 -4.43046e-13  -1.7628e-16
        6.859 -5.79741e-13 -2.27921e-16
      6.73892 -7.68708e-13  -2.9863e-16
      6.61883 -6.92654e-13 -2.65903e-16
      6.49875 -1.04603e-12 -3.96817e-16
      6.37867 -8.55819e-13 -3.20816e-16
      6.25859 -2.32793e-12 -8.62287e-16
       6.1385 -2.12813e-12 -7.78858e-16
      6.01842 -4.64859e-14 -1.68079e-17
      5.89834 -6.94523e-13  -2.4806e-16
      5.77826  3.42081e-12  1.20673e-15
      5.65817  3.99143e-12  1.39042e-15
      5.53809 -2.65998e-12 -9.14861e-16
      5.41801 -7.56398e-12 -2.56805e-15
      5.29793  5.94093e-12  1.99069e-15
      5.17784 -1.19149e-12  -3.9397e-16
      5.05776  5.89436e-13  1.92295e-16
      4.93768 -9.43925e-12 -3.03785e-15
       4.8176  6.66292e-13  2.11511e-16
      4.69751  5.01827e-12  1.57115e-15
      4.57743 -4.48118e-12 -1.38366e-15
      4.45735  3.38719e-12  1.03148e-15
      4.33727 -7.63184e-12 -2.29234e-15
      4.21718 -1.97991e-12 -5.86668e-16
       4.0971  6.78623e-12  1.98418e-15
      3.97702  3.40458e-11  9.82626e-15
      3.85694   5.2117e-11  1.48568e-14
      3.73685  1.58547e-10  4.46766e-14
      3.61677  5.18601e-10  1.44615e-13
      3.49669   1.4764e-09  4.07972e-13
      3.37661  4.30377e-09  1.18038e-12
      3.25652  1.21019e-08  3.30027e-12
      3.13644   3.3291e-08  9.04481e-12
      3.01636  8.90335e-08  2.41519e-11
      2.89628  2.33208e-07   6.3317e-11
      2.77619  5.97175e-07  1.62718e-10
      2.65611  1.49613e-06  4.10379e-10
      2.53603  3.66589e-06  1.01573e-09
      2.41595  8.78587e-06  2.46871e-09
      2.29586  2.06342e-05  5.90628e-09
      2.17578  4.75875e-05   1.3948e-08
       2.0557   0.00010809  3.26374e-08
      1.93562  0.000242516  7.59699e-08
      1.81553  0.000538819  1.76575e-07
      1.69545   0.00118733  4.11092e-07
      1.57537   0.00259607  9.61032e-07
      1.45529   0.00563075   2.2611e-06
       1.3352    0.0121054  5.36787e-06
      1.21512    0.0257381  1.28871e-05
      1.09504    0.0538765  3.13399e-05
     0.974955     0.110275  7.73477e-05
     0.854873     0.217956  0.000193802
      0.73479       0.4073   0.00049243
     0.614708     0.691359   0.00126006
     0.494626     0.984559   0.00318667
     0.374543            1   0.00770433
     0.254461     0.482547    0.0170569
     0.134378    0.0113387    0.0340533
    0.0142955            0    0.0638974
    -0.105787            0     0.115045
    -0.225869            0     0.197161
    -0.345952            0     0.317916
    -0.466034            0     0.476941
    -0.586117            0     0.658495
    -0.706199            0     0.829844
    -0.826282            0     0.952584
    -0.946364            0            1
     -1.06645            0     0.967937
     -1.18653            0      0.87341
     -1.30661            0     0.742909
     -1.42669            0     0.601465
     -1.54678            0     0.467145
     -1.66686            0     0.349916
     -1.78694            0     0.253752
     -1.90702            0      0.17857
     -2.02711            0     0.122093
     -2.14719            0    0.0811307
     -2.26727            0    0.0523519
     -2.38735            0    0.0327577
     -2.50744            0    0.0198283
     -2.62752            0    0.0115727
      -2.7476            0   0.00648377
     -2.86768            0   0.00346594
     -2.98777            0   0.00175351
     -3.10785            0  0.000830302
     -3.22793            0   0.00036212
     -3.34801            0  0.000142006
      -3.4681            0  4.81232e-05
     -3.58818            0  1.30965e-05
     -3.70826            0  2.43524e-06
     -3.82834            0  1.49557e-07

pressure[atm]        = 2
temperature[K]       = 200
energy step[1/cm]    = 42
maximum energy[1/cm] = 4205

Bimolecular-to-bimolecular product energy distributions:
  E, kcal/mol       P0->P1
      12.0225   7.6201e-09
      11.9025  9.75271e-09
      11.7824  1.24774e-08
      11.6623  1.59571e-08
      11.5422  2.03993e-08
      11.4221  2.60676e-08
       11.302  3.32976e-08
       11.182  4.25155e-08
      11.0619  5.42626e-08
      10.9418  6.92263e-08
      10.8217  8.82785e-08
      10.7016  1.12525e-07
      10.5816  1.43368e-07
      10.4615  1.82582e-07
      10.3414  2.32417e-07
      10.2213  2.95716e-07
      10.1012  3.76079e-07
      9.98114  4.78052e-07
      9.86106  6.07382e-07
      9.74098  7.71319e-07
      9.62089  9.79012e-07
      9.50081  1.24199e-06
      9.38073   1.5748e-06
      9.26065  1.99571e-06
      9.14056  2.52774e-06
      9.02048  3.19982e-06
       8.9004  4.04825e-06
      8.78032  5.11862e-06
      8.66023  6.46805e-06
      8.54015  8.16814e-06
      8.42007  1.03085e-05
      8.29999  1.30012e-05
       8.1799  1.63862e-05
      8.05982  2.06384e-05
      7.93974  2.59758e-05
      7.81966  3.26701e-05
      7.69957  4.10592e-05
      7.57949  5.15639e-05
      7.45941  6.47061e-05
      7.33933  8.11339e-05
      7.21925   0.00010165
      7.09916  0.000127249
      6.97908  0.000159161
        6.859  0.000198903
      6.73892  0.000248351
      6.61883  0.000309815
      6.49875  0.000386139
      6.37867  0.000480822
      6.25859  0.000598157
       6.1385  0.000743411
      6.01842  0.000923033
      5.89834   0.00114491
