Temperature = 1569.23K
THERMAL DISTRIBUTIONS:
  E, kcal/mol           W1
      138.224    0.0356956
      138.081    0.0371216
      137.938    0.0386045
      137.795    0.0401464
      137.652    0.0417498
      137.509     0.043417
      137.366    0.0451507
      137.223    0.0469534
       137.08    0.0488279
      136.937     0.050777
      136.794    0.0528037
      136.651    0.0549112
      136.508    0.0571025
      136.365     0.059381
      136.222    0.0617503
      136.079    0.0642138
      135.936    0.0667753
      135.793    0.0694388
       135.65    0.0722082
      135.507    0.0750878
      135.364     0.078082
      135.221    0.0811952
      135.079    0.0844322
      134.936     0.087798
      134.793    0.0912975
       134.65    0.0949362
      134.507    0.0987195
      134.364     0.102653
      134.221     0.106743
      134.078     0.110996
      133.935     0.115417
      133.792     0.120015
      133.649     0.124795
      133.506     0.129764
      133.363     0.134931
       133.22     0.140304
      133.077     0.145889
      132.934     0.151697
      132.791     0.157735
      132.648     0.164012
      132.505     0.170539
      132.362     0.177325
      132.219      0.18438
      132.076     0.191716
      131.933     0.199342
      131.791     0.207271
      131.648     0.215514
      131.505     0.224084
      131.362     0.232994
      131.219     0.242258
      131.076     0.251888
      130.933     0.261901
       130.79     0.272311
      130.647     0.283133
      130.504     0.294384
      130.361     0.306081
      130.218     0.318241
      130.075     0.330883
      129.932     0.344027
      129.789      0.35769
      129.646     0.371895
      129.503     0.386663
       129.36     0.402015
      129.217     0.417975
      129.074     0.434567
      128.931     0.451816
      128.788     0.469748
      128.646     0.488389
      128.503     0.507769
       128.36     0.527914
      128.217     0.548857
      128.074     0.570629
      127.931     0.593262
      127.788      0.61679
      127.645     0.641248
      127.502     0.666674
      127.359     0.693105
      127.216     0.720581
      127.073     0.749143
       126.93     0.778834
      126.787     0.809698
      126.644     0.841782
      126.501     0.875134
      126.358     0.909804
      126.215     0.945843
      126.072     0.983306
      125.929      1.02225
      125.786      1.06273
      125.643      1.10481
        125.5      1.14855
      125.358      1.19401
      125.215      1.24128
      125.072       1.2904
      124.929      1.34147
      124.786      1.39455
      124.643      1.44972
        124.5      1.50707
      124.357      1.56669
      124.214      1.62865
      124.071      1.69306
      123.928      1.76001
      123.785       1.8296
      123.642      1.90193
      123.499      1.97712
      123.356      2.05526
      123.213      2.13649
       123.07      2.22092
      122.927      2.30867
      122.784      2.39988
      122.641      2.49469
      122.498      2.59323
      122.355      2.69565
      122.213       2.8021
       122.07      2.91274
      121.927      3.02774
      121.784      3.14727
      121.641       3.2715
      121.498      3.40062
      121.355      3.53483
      121.212      3.67431
      121.069      3.81928
      120.926      3.96995
      120.783      4.12655
       120.64      4.28931
      120.497      4.45847
      120.354      4.63428
      120.211        4.817
      120.068       5.0069
      119.925      5.20427
      119.782       5.4094
      119.639      5.62258
      119.496      5.84415
      119.353      6.07441
       119.21      6.31373
      119.068      6.56244
      118.925      6.82092
      118.782      7.08955
      118.639      7.36872
      118.496      7.65886
      118.353      7.96039
       118.21      8.27375
      118.067      8.59941
      117.924      8.93784
      117.781      9.28956
      117.638      9.65507
      117.495      10.0349
      117.352      10.4297
      117.209      10.8399
      117.066      11.2662
      116.923      11.7092
       116.78      12.1696
      116.637      12.6481
      116.494      13.1453
      116.351       13.662
      116.208      14.1989
      116.065      14.7568
      115.922      15.3367
       115.78      15.9392
      115.637      16.5653
      115.494      17.2159
      115.351      17.8921
      115.208      18.5946
      115.065      19.3247
      114.922      20.0834
      114.779      20.8717
      114.636      21.6909
      114.493      22.5422
       114.35      23.4267
      114.207      24.3459
      114.064       25.301
      113.921      26.2934
      113.778      27.3247
      113.635      28.3962
      113.492      29.5097
      113.349      30.6667
      113.206      31.8689
      113.063       33.118
       112.92       34.416
      112.777      35.7647
      112.635       37.166
      112.492      38.6221
      112.349      40.1351
      112.206      41.7071
      112.063      43.3405
       111.92      45.0377
      111.777      46.8011
      111.634      48.6333
      111.491       50.537
      111.348       52.515
      111.205      54.5701
      111.062      56.7054
      110.919       58.924
      110.776      61.2292
      110.633      63.6241
       110.49      66.1125
      110.347      68.6979
      110.204       71.384
      110.061      74.1748
      109.918      77.0743
      109.775      80.0868
      109.632      83.2167
       109.49      86.4685
      109.347      89.8469
      109.204      93.3569
      109.061      97.0035
      108.918      100.792
      108.775      104.728
      108.632      108.817
      108.489      113.066
      108.346      117.479
      108.203      122.065
       108.06      126.829
      107.917      131.778
      107.774      136.919
      107.631      142.261
      107.488       147.81
      107.345      153.574
      107.202      159.563
      107.059      165.785
      106.916      172.248
      106.773      178.963
       106.63      185.938
      106.487      193.184
      106.344      200.712
      106.202      208.532
      106.059      216.655
      105.916      225.094
      105.773      233.861
       105.63      242.968
      105.487      252.428
      105.344      262.255
      105.201      272.463
      105.058      283.068
      104.915      294.083
      104.772      305.526
      104.629      317.413
      104.486       329.76
      104.343      342.586
        104.2      355.909
      104.057      369.748
      103.914      384.124
      103.771      399.056
      103.628      414.567
      103.485      430.679
      103.342      447.414
      103.199      464.798
      103.057      482.854
      102.914       501.61
      102.771      521.091
      102.628      541.326
      102.485      562.344
      102.342      584.176
      102.199      606.851
      102.056      630.404
      101.913      654.868
       101.77      680.277
      101.627      706.669
      101.484      734.081
      101.341      762.552
      101.198      792.124
      101.055      822.838
      100.912      854.739
      100.769      887.871
      100.626      922.284
      100.483      958.025
       100.34      995.147
      100.197       1033.7
      100.054      1073.74
      99.9115      1115.33
      99.7685      1158.52
      99.6256      1203.38
      99.4826      1249.97
      99.3397      1298.36
      99.1967      1348.61
      99.0538       1400.8
      98.9108      1455.01
      98.7678       1511.3
      98.6249      1569.76
      98.4819      1630.47
       98.339      1693.53
       98.196      1759.01
      98.0531      1827.02
      97.9101      1897.64
      97.7672      1970.99
      97.6242      2047.16
      97.4813      2126.26
      97.3383       2208.4
      97.1953      2293.71
      97.0524       2382.3
      96.9094       2474.3
      96.7665      2569.83
      96.6235      2669.05
      96.4806      2772.07
      96.3376      2879.06
      96.1947      2990.17
      96.0517      3105.54
      95.9087      3225.35
      95.7658      3349.76
      95.6228      3478.95
      95.4799       3613.1
      95.3369      3752.41
       95.194      3897.07
       95.051      4047.28
      94.9081      4203.26
      94.7651      4365.23
      94.6221      4533.42
      94.4792      4708.05
      94.3362      4889.39
      94.1933      5077.69
      94.0503      5273.21
      93.9074      5476.23
      93.7644      5687.03
      93.6215      5905.92
      93.4785      6133.19
      93.3355      6369.18
      93.1926      6614.21
      93.0496      6868.63
      92.9067       7132.8
      92.7637      7407.09
      92.6208      7691.88
      92.4778      7987.57
      92.3349      8294.59
      92.1919      8613.36
      92.0489      8944.34
       91.906      9287.97
       91.763      9644.76
      91.6201      10015.2
      91.4771      10399.8
      91.3342      10799.1
      91.1912      11213.7
      91.0483      11644.1
      90.9053        12091
      90.7623        12555
      90.6194      13036.7
      90.4764      13536.8
      90.3335        14056
      90.1905      14595.1
      90.0476      15154.7
      89.9046      15735.7
      89.7617      16338.9
      89.6187      16965.1
      89.4758      17615.2
      89.3328      18290.1
      89.1898      18990.8
      89.0469      19718.1
      88.9039      20473.3
       88.761      21257.2
       88.618        22071
      88.4751      22915.9
      88.3321      23792.9
      88.1892      24703.4
      88.0462      25648.5
      87.9032      26629.7
      87.7603      27648.3
      87.6173      28705.6
      87.4744      29803.2
      87.3314      30942.6
      87.1885      32125.3
      87.0455      33353.1
      86.9026      34627.6
      86.7596      35950.6
      86.6166      37323.9
      86.4737      38749.4
      86.3307      40229.2
      86.1878      41765.2
      86.0448      43359.6
      85.9019      45014.6
      85.7589      46732.5
       85.616      48515.7
       85.473      50366.6
        85.33      52287.9
      85.1871        54282
      85.0441      56351.9
      84.9012      58500.4
      84.7582      60730.5
      84.6153      63045.1
      84.4723      65447.6
      84.3294      67941.3
      84.1864      70529.5
      84.0434      73215.9
      83.9005      76004.2
      83.7575      78898.1
      83.6146      81901.8
      83.4716      85019.3
      83.3287      88254.9
      83.1857      91613.1
      83.0428      95098.5
      82.8998      98715.9
      82.7569       102470
      82.6139       106367
      82.4709       110411
       82.328       114608
       82.185       118964
      82.0421       123484
      81.8991       128176
      81.7562       133045
      81.6132       138099
      81.4703       143343
      81.3273       148785
      81.1843       154434
      81.0414       160295
      80.8984       166378
      80.7555       172691
      80.6125       179242
      80.4696       186041
      80.3266       193096
      80.1837       200418
      80.0407       208016
      79.8977       215900
      79.7548       224082
      79.6118       232573
      79.4689       241384
      79.3259       250527
       79.183       260014
        79.04       269860
      78.8971       280076
      78.7541       290677
      78.6111       301678
      78.4682       313093
      78.3252       324938
      78.1823       337228
      78.0393       349982
      77.8964       363215
      77.7534       376946
      77.6105       391194
      77.4675       405978
      77.3245       421318
      77.1816       437235
      77.0386       453750
      76.8957       470885
      76.7527       488665
      76.6098       507113
      76.4668       526254
      76.3239       546113
      76.1809       566719
      76.0379       588098
       75.895       610279
       75.752       633293
      75.6091       657171
      75.4661       681944
      75.3232       707647
      75.1802       734313
      75.0373       761980
      74.8943       790683
      74.7514       820462
      74.6084       851358
      74.4654       883410
      74.3225       916664
      74.1795       951163
      74.0366       986953
      73.8936  1.02408e+06
      73.7507   1.0626e+06
      73.6077  1.10257e+06
      73.4648  1.14402e+06
      73.3218  1.18703e+06
      73.1788  1.23165e+06
      73.0359  1.27793e+06
      72.8929  1.32595e+06
        72.75  1.37576e+06
       72.607  1.42743e+06
      72.4641  1.48103e+06
      72.3211  1.53663e+06
      72.1782  1.59432e+06
      72.0352  1.65415e+06
      71.8922  1.71622e+06
      71.7493   1.7806e+06
      71.6063  1.84739e+06
      71.4634  1.91667e+06
      71.3204  1.98854e+06
      71.1775  2.06308e+06
      71.0345  2.14041e+06
      70.8916  2.22062e+06
      70.7486  2.30382e+06
      70.6056  2.39011e+06
      70.4627  2.47963e+06
      70.3197  2.57248e+06
      70.1768  2.66878e+06
      70.0338  2.76868e+06
      69.8909  2.87229e+06
      69.7479  2.97976e+06
       69.605  3.09123e+06
       69.462  3.20684e+06
       69.319  3.32676e+06
      69.1761  3.45113e+06
      69.0331  3.58013e+06
      68.8902  3.71393e+06
      68.7472   3.8527e+06
      68.6043  3.99663e+06
      68.4613   4.1459e+06
      68.3184  4.30072e+06
      68.1754  4.46129e+06
      68.0324  4.62782e+06
      67.8895  4.80053e+06
      67.7465  4.97965e+06
      67.6036  5.16542e+06
      67.4606  5.35808e+06
      67.3177  5.55788e+06
      67.1747   5.7651e+06
      67.0318     5.98e+06
      66.8888  6.20286e+06
      66.7459  6.43399e+06
      66.6029  6.67368e+06
      66.4599  6.92224e+06
       66.317  7.18001e+06
       66.174  7.44733e+06
      66.0311  7.72455e+06
      65.8881  8.01202e+06
      65.7452  8.31013e+06
      65.6022  8.61927e+06
      65.4593  8.93985e+06
      65.3163  9.27228e+06
      65.1733    9.617e+06
      65.0304  9.97447e+06
      64.8874  1.03451e+07
      64.7445  1.07295e+07
      64.6015  1.11281e+07
      64.4586  1.15414e+07
      64.3156  1.19699e+07
      64.1727  1.24143e+07
      64.0297  1.28751e+07
      63.8867  1.33528e+07
      63.7438  1.38482e+07
      63.6008  1.43619e+07
      63.4579  1.48945e+07
      63.3149  1.54468e+07
       63.172  1.60194e+07
       63.029  1.66131e+07
      62.8861  1.72287e+07
      62.7431   1.7867e+07
      62.6001  1.85287e+07
      62.4572  1.92148e+07
      62.3142  1.99262e+07
      62.1713  2.06638e+07
      62.0283  2.14285e+07
      61.8854  2.22213e+07
      61.7424  2.30433e+07
      61.5995  2.38956e+07
      61.4565  2.47791e+07
      61.3135  2.56951e+07
      61.1706  2.66448e+07
      61.0276  2.76294e+07
      60.8847  2.86501e+07
      60.7417  2.97083e+07
      60.5988  3.08053e+07
      60.4558  3.19426e+07
      60.3129  3.31217e+07
      60.1699   3.4344e+07
       60.027  3.56111e+07
       59.884  3.69247e+07
       59.741  3.82864e+07
      59.5981  3.96981e+07
      59.4551  4.11615e+07
      59.3122  4.26785e+07
      59.1692   4.4251e+07
      59.0263  4.58812e+07
      58.8833   4.7571e+07
      58.7404  4.93226e+07
      58.5974  5.11384e+07
      58.4544  5.30205e+07
      58.3115  5.49716e+07
      58.1685  5.69939e+07
      58.0256  5.90902e+07
      57.8826  6.12631e+07
      57.7397  6.35154e+07
      57.5967  6.58499e+07
      57.4538  6.82698e+07
      57.3108  7.07779e+07
      57.1678  7.33777e+07
      57.0249  7.60723e+07
      56.8819  7.88652e+07
       56.739  8.17601e+07
       56.596  8.47604e+07
      56.4531  8.78702e+07
      56.3101  9.10933e+07
      56.1672  9.44339e+07
      56.0242  9.78962e+07
      55.8812  1.01485e+08
      55.7383  1.05204e+08
      55.5953  1.09058e+08
      55.4524  1.13053e+08
      55.3094  1.17193e+08
      55.1665  1.21484e+08
      55.0235  1.25931e+08
      54.8806  1.30539e+08
      54.7376  1.35315e+08
      54.5946  1.40265e+08
      54.4517  1.45394e+08
      54.3087   1.5071e+08
      54.1658  1.56219e+08
      54.0228  1.61928e+08
      53.8799  1.67844e+08
      53.7369  1.73975e+08
       53.594  1.80328e+08
       53.451  1.86911e+08
       53.308  1.93734e+08
      53.1651  2.00803e+08
      53.0221  2.08129e+08
      52.8792   2.1572e+08
      52.7362  2.23587e+08
      52.5933  2.31738e+08
      52.4503  2.40184e+08
      52.3074  2.48936e+08
      52.1644  2.58005e+08
      52.0215  2.67402e+08
      51.8785  2.77139e+08
      51.7355  2.87227e+08
      51.5926  2.97681e+08
      51.4496  3.08512e+08
      51.3067  3.19735e+08
      51.1637  3.31363e+08
      51.0208  3.43411e+08
      50.8778  3.55893e+08
      50.7349  3.68827e+08
      50.5919  3.82227e+08
      50.4489   3.9611e+08
       50.306  4.10495e+08
       50.163  4.25397e+08
      50.0201  4.40837e+08
      49.8771  4.56834e+08
      49.7342  4.73406e+08
      49.5912  4.90576e+08
      49.4483  5.08364e+08
      49.3053  5.26792e+08
      49.1623  5.45883e+08
      49.0194  5.65661e+08
      48.8764   5.8615e+08
      48.7335  6.07377e+08
      48.5905  6.29366e+08
      48.4476  6.52146e+08
      48.3046  6.75744e+08
      48.1617  7.00189e+08
      48.0187  7.25513e+08
      47.8757  7.51745e+08
      47.7328  7.78919e+08
      47.5898  8.07069e+08
      47.4469  8.36227e+08
      47.3039  8.66432e+08
       47.161  8.97719e+08
       47.018  9.30128e+08
      46.8751  9.63697e+08
      46.7321   9.9847e+08
      46.5891  1.03449e+09
      46.4462  1.07179e+09
      46.3032  1.11044e+09
      46.1603  1.15046e+09
      46.0173  1.19192e+09
      45.8744  1.23486e+09
      45.7314  1.27933e+09
      45.5885  1.32539e+09
      45.4455   1.3731e+09
      45.3025  1.42252e+09
      45.1596  1.47369e+09
      45.0166   1.5267e+09
      44.8737   1.5816e+09
      44.7307  1.63845e+09
      44.5878  1.69733e+09
      44.4448  1.75832e+09
      44.3019  1.82147e+09
      44.1589  1.88688e+09
       44.016  1.95462e+09
       43.873  2.02477e+09
        43.73  2.09742e+09
      43.5871  2.17265e+09
      43.4441  2.25056e+09
      43.3012  2.33124e+09
      43.1582   2.4148e+09
      43.0153  2.50132e+09
      42.8723  2.59092e+09
      42.7294   2.6837e+09
      42.5864  2.77978e+09
      42.4434  2.87927e+09
      42.3005  2.98229e+09
      42.1575  3.08897e+09
      42.0146  3.19943e+09
      41.8716  3.31381e+09
      41.7287  3.43225e+09
      41.5857  3.55488e+09
      41.4428  3.68186e+09
      41.2998  3.81334e+09
      41.1568  3.94948e+09
      41.0139  4.09043e+09
      40.8709  4.23638e+09
       40.728  4.38749e+09
       40.585  4.54394e+09
      40.4421  4.70593e+09
      40.2991  4.87364e+09
      40.1562  5.04728e+09
      40.0132  5.22706e+09
      39.8702  5.41318e+09
      39.7273  5.60588e+09
      39.5843  5.80537e+09
      39.4414  6.01191e+09
      39.2984  6.22573e+09
      39.1555  6.44709e+09
      39.0125  6.67626e+09
      38.8696   6.9135e+09
      38.7266   7.1591e+09
      38.5836  7.41335e+09
      38.4407  7.67655e+09
      38.2977  7.94901e+09
      38.1548  8.23106e+09
      38.0118  8.52304e+09
      37.8689  8.82527e+09
      37.7259  9.13814e+09
       37.583  9.46199e+09
        37.44  9.79723e+09
      37.2971  1.01442e+10
      37.1541  1.05034e+10
      37.0111  1.08752e+10
      36.8682  1.12601e+10
      36.7252  1.16584e+10
      36.5823  1.20707e+10
      36.4393  1.24974e+10
      36.2964  1.29391e+10
      36.1534  1.33963e+10
      36.0105  1.38695e+10
      35.8675  1.43593e+10
      35.7245  1.48661e+10
      35.5816  1.53908e+10
      35.4386  1.59337e+10
      35.2957  1.64957e+10
      35.1527  1.70772e+10
      35.0098  1.76791e+10
      34.8668   1.8302e+10
      34.7239  1.89467e+10
      34.5809  1.96139e+10
      34.4379  2.03043e+10
       34.295  2.10188e+10
       34.152  2.17582e+10
      34.0091  2.25234e+10
      33.8661  2.33153e+10
      33.7232  2.41347e+10
      33.5802  2.49826e+10
      33.4373  2.58601e+10
      33.2943  2.67681e+10
      33.1513  2.77077e+10
      33.0084  2.86799e+10
      32.8654  2.96859e+10
