Temperature = 1650.82K
THERMAL DISTRIBUTIONS:
  E, kcal/mol           W1
      144.708    0.0910898
      144.565      0.09453
      144.422    0.0980998
      144.279     0.101804
      144.136     0.105648
      143.993     0.109636
       143.85     0.113775
      143.707     0.118069
      143.564     0.122526
      143.421     0.127149
      143.278     0.131947
      143.135     0.136926
      142.993     0.142092
       142.85     0.147452
      142.707     0.153013
      142.564     0.158784
      142.421     0.164772
      142.278     0.170986
      142.135     0.177433
      141.992     0.184122
      141.849     0.191063
      141.706     0.198264
      141.563     0.205737
       141.42      0.21349
      141.277     0.221535
      141.134     0.229882
      140.991     0.238543
      140.848     0.247529
      140.705     0.256852
      140.562     0.266526
      140.419     0.276563
      140.276     0.286977
      140.133     0.297782
       139.99     0.308993
      139.847     0.320625
      139.705     0.332693
      139.562     0.345214
      139.419     0.358205
      139.276     0.371684
      139.133     0.385669
       138.99     0.400178
      138.847     0.415231
      138.704     0.430849
      138.561     0.447053
      138.418     0.463865
      138.275     0.481307
      138.132     0.499403
      137.989     0.518178
      137.846     0.537656
      137.703     0.557864
       137.56      0.57883
      137.417     0.600581
      137.274     0.623148
      137.131      0.64656
      136.988     0.670849
      136.845     0.696048
      136.702      0.72219
       136.56     0.749312
      136.417      0.77745
      136.274     0.806641
      136.131     0.836924
      135.988     0.868342
      135.845     0.900935
      135.702     0.934749
      135.559     0.969827
      135.416      1.00622
      135.273      1.04397
       135.13      1.08314
      134.987      1.12377
      134.844      1.16592
      134.701      1.20964
      134.558        1.255
      134.415      1.30206
      134.272      1.35088
      134.129      1.40152
      133.986      1.45405
      133.843      1.50855
        133.7      1.56508
      133.557      1.62373
      133.415      1.68457
      133.272      1.74768
      133.129      1.81314
      132.986      1.88106
      132.843      1.95151
        132.7      2.02458
      132.557      2.10039
      132.414      2.17903
      132.271       2.2606
      132.128      2.34522
      131.985      2.43299
      131.842      2.52404
      131.699      2.61849
      131.556      2.71646
      131.413      2.81809
       131.27       2.9235
      131.127      3.03285
      130.984      3.14628
      130.841      3.26393
      130.698      3.38597
      130.555      3.51256
      130.412      3.64387
      130.269      3.78007
      130.127      3.92135
      129.984      4.06789
      129.841      4.21989
      129.698      4.37755
      129.555      4.54108
      129.412      4.71071
      129.269      4.88665
      129.126      5.06914
      128.983      5.25843
       128.84      5.45476
      128.697       5.6584
      128.554      5.86962
      128.411       6.0887
      128.268      6.31593
      128.125      6.55161
      127.982      6.79607
      127.839      7.04961
      127.696      7.31258
      127.553      7.58534
       127.41      7.86823
      127.267      8.16164
      127.124      8.46596
      126.982      8.78159
      126.839      9.10895
      126.696      9.44847
      126.553      9.80061
       126.41      10.1658
      126.267      10.5446
      126.124      10.9375
      125.981      11.3449
      125.838      11.7675
      125.695      12.2058
      125.552      12.6603
      125.409      13.1317
      125.266      13.6206
      125.123      14.1277
       124.98      14.6536
      124.837      15.1989
      124.694      15.7645
      124.551      16.3511
      124.408      16.9595
      124.265      17.5904
      124.122      18.2447
      123.979      18.9233
      123.836       19.627
      123.694      20.3568
      123.551      21.1136
      123.408      21.8985
      123.265      22.7125
      123.122      23.5566
      122.979      24.4321
      122.836      25.3399
      122.693      26.2813
       122.55      27.2577
      122.407      28.2701
      122.264      29.3201
      122.121      30.4089
      121.978       31.538
      121.835      32.7089
      121.692      33.9231
      121.549      35.1823
      121.406       36.488
      121.263       37.842
       121.12      39.2461
      120.977      40.7022
      120.834      42.2121
      120.691      43.7777
      120.549      45.4013
      120.406      47.0849
      120.263      48.8307
       120.12       50.641
      119.977      52.5182
      119.834      54.4648
      119.691      56.4832
      119.548      58.5762
      119.405      60.7465
      119.262       62.997
      119.119      65.3305
      118.976      67.7502
      118.833      70.2591
       118.69      72.8607
      118.547      75.5583
      118.404      78.3554
      118.261      81.2557
      118.118       84.263
      117.975      87.3811
      117.832      90.6143
      117.689      93.9667
      117.546      97.4427
      117.404      101.047
      117.261      104.784
      117.118      108.659
      116.975      112.676
      116.832      116.842
      116.689       121.16
      116.546      125.639
      116.403      130.282
       116.26      135.095
      116.117      140.087
      115.974      145.262
      115.831      150.627
      115.688       156.19
      115.545      161.958
      115.402      167.938
      115.259      174.137
      115.116      180.565
      114.973       187.23
       114.83      194.139
      114.687      201.303
      114.544       208.73
      114.401       216.43
      114.258      224.413
      114.116      232.689
      113.973       241.27
       113.83      250.166
      113.687      259.388
      113.544       268.95
      113.401      278.862
      113.258      289.139
      113.115      299.793
      112.972      310.838
      112.829      322.288
      112.686      334.159
      112.543      346.466
        112.4      359.224
      112.257       372.45
      112.114      386.161
      111.971      400.375
      111.828      415.111
      111.685      430.386
      111.542      446.222
      111.399      462.639
      111.256      479.657
      111.113      497.299
      110.971      515.587
      110.828      534.545
      110.685      554.198
      110.542       574.57
      110.399      595.689
      110.256      617.581
      110.113      640.275
       109.97      663.799
      109.827      688.185
      109.684      713.463
      109.541      739.666
      109.398      766.827
      109.255      794.983
      109.112      824.168
      108.969       854.42
      108.826      885.779
      108.683      918.284
       108.54      951.978
      108.397      986.903
      108.254       1023.1
      108.111      1060.63
      107.968      1099.52
      107.825      1139.84
      107.683      1181.63
       107.54      1224.94
      107.397      1269.84
      107.254      1316.38
      107.111      1364.61
      106.968      1414.61
      106.825      1466.43
      106.682      1520.14
      106.539      1575.81
      106.396      1633.51
      106.253      1693.32
       106.11       1755.3
      105.967      1819.55
      105.824      1886.14
      105.681      1955.16
      105.538      2026.69
      105.395      2100.83
      105.252      2177.67
      105.109      2257.31
      104.966      2339.85
      104.823       2425.4
       104.68      2514.06
      104.538      2605.95
      104.395      2701.19
      104.252      2799.89
      104.109      2902.18
      103.966       3008.2
      103.823      3118.08
       103.68      3231.95
      103.537      3349.96
      103.394      3472.27
      103.251      3599.02
      103.108      3730.38
      102.965      3866.52
      102.822       4007.6
      102.679      4153.81
      102.536      4305.33
      102.393      4462.36
       102.25       4625.1
      102.107      4793.74
      101.964       4968.5
      101.821      5149.62
      101.678       5337.3
      101.535       5531.8
      101.393      5733.36
       101.25      5942.23
      101.107      6158.68
      100.964      6382.98
      100.821      6615.42
      100.678      6856.29
      100.535      7105.89
      100.392      7364.53
      100.249      7632.56
      100.106      7910.29
       99.963      8198.09
        99.82      8496.32
       99.677      8805.35
      99.5341      9125.58
      99.3911       9457.4
      99.2482      9801.23
      99.1052      10157.5
      98.9623      10526.7
      98.8193      10909.2
      98.6764      11305.6
      98.5334      11716.3
      98.3904      12141.9
      98.2475      12582.9
      98.1045      13039.8
      97.9616      13513.3
      97.8186      14003.8
      97.6757      14512.1
      97.5327      15038.8
      97.3898      15584.5
      97.2468      16149.9
      97.1038      16735.7
      96.9609      17342.7
      96.8179      17971.6
       96.675      18623.2
       96.532      19298.3
      96.3891      19997.9
      96.2461      20722.6
      96.1032      21473.5
      95.9602      22251.5
      95.8173      23057.6
      95.6743      23892.7
      95.5313      24757.9
      95.3884      25654.4
      95.2454      26583.1
      95.1025      27545.4
      94.9595      28542.3
      94.8166      29575.1
      94.6736      30645.1
      94.5307      31753.7
      94.3877      32902.2
      94.2447        34092
      94.1018      35324.7
      93.9588      36601.8
      93.8159      37924.8
      93.6729      39295.4
        93.53      40715.3
       93.387      42186.3
      93.2441      43710.3
      93.1011        45289
      92.9581      46924.5
      92.8152      48618.7
      92.6722      50373.9
      92.5293      52192.1
      92.3863      54075.7
      92.2434      56026.9
      92.1004      58048.3
      91.9575      60142.2
      91.8145      62311.3
      91.6715      64558.2
      91.5286      66885.8
      91.3856        69297
      91.2427      71794.7
      91.0997      74381.9
      90.9568        77062
      90.8138      79838.2
      90.6709      82713.9
      90.5279      85692.8
      90.3849      88778.4
       90.242      91974.6
       90.099      95285.3
      89.9561      98714.7
      89.8131       102267
      89.6702       105946
      89.5272       109757
      89.3843       113705
      89.2413       117794
      89.0983       122029
      88.9554       126416
      88.8124       130960
      88.6695       135666
      88.5265       140541
      88.3836       145590
      88.2406       150819
      88.0977       156236
      87.9547       161845
      87.8118       167656
      87.6688       173674
      87.5258       179907
      87.3829       186363
      87.2399       193049
       87.097       199974
       86.954       207146
      86.8111       214574
      86.6681       222267
      86.5252       230234
      86.3822       238486
      86.2392       247032
      86.0963       255883
      85.9533       265049
      85.8104       274542
      85.6674       284373
      85.5245       294555
      85.3815       305099
      85.2386       316019
      85.0956       327328
      84.9526       339040
      84.8097       351168
      84.6667       363729
      84.5238       376736
      84.3808       390206
      84.2379       404155
      84.0949       418600
       83.952       433559
       83.809       449050
       83.666       465092
      83.5231       481703
      83.3801       498905
      83.2372       516718
      83.0942       535164
      82.9513       554265
      82.8083       574044
      82.6654       594526
      82.5224       615734
      82.3794       637695
      82.2365       660436
      82.0935       683983
      81.9506       708365
      81.8076       733612
      81.6647       759754
      81.5217       786823
      81.3788       814851
      81.2358       843873
      81.0929       873922
      80.9499       905036
      80.8069       937252
       80.664       970608
       80.521  1.00515e+06
      80.3781  1.04091e+06
      80.2351  1.07793e+06
      80.0922  1.11627e+06
      79.9492  1.15596e+06
      79.8063  1.19705e+06
      79.6633   1.2396e+06
      79.5203  1.28366e+06
      79.3774  1.32926e+06
      79.2344  1.37649e+06
      79.0915  1.42538e+06
      78.9485  1.47599e+06
      78.8056   1.5284e+06
      78.6626  1.58266e+06
      78.5197  1.63883e+06
      78.3767  1.69698e+06
      78.2337  1.75719e+06
      78.0908  1.81952e+06
      77.9478  1.88405e+06
      77.8049  1.95086e+06
      77.6619  2.02002e+06
       77.519  2.09162e+06
       77.376  2.16574e+06
      77.2331  2.24248e+06
      77.0901  2.32192e+06
      76.9471  2.40416e+06
      76.8042   2.4893e+06
      76.6612  2.57743e+06
      76.5183  2.66867e+06
      76.3753  2.76312e+06
      76.2324  2.86089e+06
      76.0894  2.96211e+06
      75.9465  3.06688e+06
      75.8035  3.17534e+06
      75.6605  3.28761e+06
      75.5176  3.40383e+06
      75.3746  3.52414e+06
      75.2317  3.64868e+06
      75.0887  3.77759e+06
      74.9458  3.91103e+06
      74.8028  4.04915e+06
      74.6599  4.19213e+06
      74.5169  4.34012e+06
      74.3739  4.49331e+06
       74.231  4.65188e+06
       74.088  4.81601e+06
      73.9451   4.9859e+06
      73.8021  5.16175e+06
      73.6592  5.34376e+06
      73.5162  5.53216e+06
      73.3733  5.72715e+06
      73.2303  5.92898e+06
      73.0874  6.13789e+06
      72.9444  6.35411e+06
      72.8014   6.5779e+06
      72.6585  6.80953e+06
      72.5155  7.04926e+06
      72.3726  7.29739e+06
      72.2296   7.5542e+06
      72.0867  7.81999e+06
      71.9437  8.09508e+06
      71.8008  8.37979e+06
      71.6578  8.67446e+06
      71.5148  8.97942e+06
      71.3719  9.29505e+06
      71.2289   9.6217e+06
       71.086  9.95976e+06
       70.943  1.03096e+07
      70.8001  1.06717e+07
      70.6571  1.10464e+07
      70.5142  1.14342e+07
      70.3712  1.18356e+07
      70.2282  1.22509e+07
      70.0853  1.26807e+07
      69.9423  1.31255e+07
      69.7994  1.35859e+07
      69.6564  1.40622e+07
      69.5135  1.45552e+07
      69.3705  1.50653e+07
      69.2276  1.55933e+07
      69.0846  1.61396e+07
      68.9416  1.67049e+07
      68.7987  1.72899e+07
      68.6557  1.78952e+07
      68.5128  1.85217e+07
      68.3698  1.91699e+07
      68.2269  1.98406e+07
      68.0839  2.05347e+07
       67.941  2.12529e+07
       67.798  2.19961e+07
       67.655  2.27651e+07
      67.5121  2.35609e+07
      67.3691  2.43842e+07
      67.2262  2.52362e+07
      67.0832  2.61177e+07
      66.9403  2.70298e+07
      66.7973  2.79736e+07
      66.6544  2.89501e+07
      66.5114  2.99605e+07
      66.3684   3.1006e+07
      66.2255  3.20876e+07
      66.0825  3.32068e+07
      65.9396  3.43648e+07
      65.7966  3.55629e+07
      65.6537  3.68024e+07
      65.5107   3.8085e+07
      65.3678  3.94119e+07
      65.2248  4.07847e+07
      65.0819  4.22051e+07
      64.9389  4.36746e+07
      64.7959  4.51949e+07
       64.653  4.67678e+07
        64.51  4.83951e+07
      64.3671  5.00787e+07
      64.2241  5.18204e+07
      64.0812  5.36223e+07
      63.9382  5.54865e+07
      63.7953   5.7415e+07
      63.6523  5.94101e+07
      63.5093  6.14741e+07
      63.3664  6.36093e+07
      63.2234  6.58182e+07
      63.0805  6.81033e+07
      62.9375  7.04671e+07
      62.7946  7.29125e+07
      62.6516  7.54422e+07
      62.5087   7.8059e+07
      62.3657   8.0766e+07
      62.2227  8.35663e+07
      62.0798  8.64629e+07
      61.9368  8.94593e+07
      61.7939  9.25589e+07
      61.6509  9.57651e+07
       61.508  9.90815e+07
       61.365  1.02512e+08
      61.2221  1.06061e+08
      61.0791  1.09731e+08
      60.9361  1.13528e+08
      60.7932  1.17455e+08
      60.6502  1.21517e+08
      60.5073  1.25719e+08
      60.3643  1.30064e+08
      60.2214  1.34559e+08
      60.0784  1.39209e+08
      59.9355  1.44017e+08
      59.7925  1.48991e+08
      59.6495  1.54135e+08
      59.5066  1.59456e+08
      59.3636  1.64959e+08
      59.2207  1.70651e+08
      59.0777  1.76537e+08
      58.9348  1.82625e+08
      58.7918  1.88922e+08
      58.6489  1.95434e+08
      58.5059  2.02169e+08
      58.3629  2.09135e+08
        58.22  2.16339e+08
       58.077  2.23789e+08
      57.9341  2.31494e+08
      57.7911  2.39462e+08
      57.6482  2.47703e+08
      57.5052  2.56225e+08
      57.3623  2.65038e+08
      57.2193  2.74152e+08
      57.0764  2.83577e+08
      56.9334  2.93324e+08
      56.7904  3.03404e+08
      56.6475  3.13827e+08
      56.5045  3.24606e+08
      56.3616  3.35752e+08
      56.2186  3.47278e+08
      56.0757  3.59197e+08
      55.9327  3.71522e+08
      55.7898  3.84266e+08
      55.6468  3.97445e+08
      55.5038  4.11072e+08
      55.3609  4.25163e+08
      55.2179  4.39733e+08
       55.075  4.54799e+08
       54.932  4.70377e+08
      54.7891  4.86485e+08
      54.6461   5.0314e+08
      54.5032  5.20361e+08
      54.3602  5.38167e+08
      54.2172  5.56578e+08
      54.0743  5.75614e+08
      53.9313  5.95296e+08
      53.7884  6.15645e+08
      53.6454  6.36685e+08
      53.5025  6.58439e+08
      53.3595  6.80929e+08
      53.2166  7.04183e+08
      53.0736  7.28224e+08
      52.9306  7.53079e+08
      52.7877  7.78777e+08
      52.6447  8.05344e+08
      52.5018  8.32811e+08
      52.3588  8.61207e+08
      52.2159  8.90563e+08
      52.0729  9.20913e+08
        51.93  9.52289e+08
       51.787  9.84725e+08
       51.644  1.01826e+09
      51.5011  1.05292e+09
      51.3581  1.08876e+09
      51.2152   1.1258e+09
      51.0722   1.1641e+09
      50.9293  1.20369e+09
      50.7863  1.24461e+09
      50.6434  1.28692e+09
      50.5004  1.33065e+09
      50.3575  1.37585e+09
      50.2145  1.42258e+09
      50.0715  1.47088e+09
      49.9286  1.52081e+09
      49.7856  1.57242e+09
      49.6427  1.62576e+09
      49.4997   1.6809e+09
      49.3568   1.7379e+09
      49.2138  1.79681e+09
      49.0709  1.85771e+09
      48.9279  1.92065e+09
      48.7849   1.9857e+09
       48.642  2.05294e+09
       48.499  2.12244e+09
      48.3561  2.19427e+09
      48.2131  2.26851e+09
      48.0702  2.34525e+09
      47.9272  2.42455e+09
      47.7843  2.50652e+09
      47.6413  2.59123e+09
      47.4983  2.67879e+09
      47.3554  2.76927e+09
      47.2124  2.86279e+09
      47.0695  2.95944e+09
      46.9265  3.05932e+09
      46.7836  3.16254e+09
      46.6406  3.26922e+09
      46.4977  3.37946e+09
      46.3547  3.49339e+09
      46.2117  3.61113e+09
      46.0688   3.7328e+09
      45.9258  3.85854e+09
      45.7829  3.98847e+09
      45.6399  4.12275e+09
       45.497   4.2615e+09
       45.354  4.40488e+09
      45.2111  4.55304e+09
      45.0681  4.70615e+09
      44.9251  4.86435e+09
      44.7822  5.02783e+09
      44.6392  5.19675e+09
      44.4963   5.3713e+09
      44.3533  5.55166e+09
      44.2104  5.73802e+09
      44.0674  5.93058e+09
      43.9245  6.12954e+09
      43.7815  6.33512e+09
      43.6385  6.54753e+09
      43.4956    6.767e+09
      43.3526  6.99376e+09
      43.2097  7.22805e+09
      43.0667  7.47012e+09
      42.9238  7.72022e+09
      42.7808  7.97861e+09
      42.6379  8.24558e+09
      42.4949   8.5214e+09
       42.352  8.80635e+09
       42.209  9.10075e+09
       42.066   9.4049e+09
      41.9231  9.71912e+09
      41.7801  1.00437e+10
      41.6372  1.03791e+10
      41.4942  1.07256e+10
      41.3513  1.10835e+10
      41.2083  1.14532e+10
      41.0654  1.18352e+10
      40.9224  1.22298e+10
      40.7794  1.26374e+10
      40.6365  1.30584e+10
      40.4935  1.34934e+10
      40.3506  1.39427e+10
      40.2076  1.44068e+10
      40.0647  1.48863e+10
      39.9217  1.53815e+10
      39.7788  1.58931e+10
      39.6358  1.64215e+10
      39.4928  1.69673e+10
      39.3499   1.7531e+10
