Temperature = 1663.84K
THERMAL DISTRIBUTIONS:
  E, kcal/mol           W1
      145.743     0.105242
        145.6     0.109183
      145.457      0.11327
      145.314      0.11751
      145.171     0.121909
      145.028     0.126471
      144.885     0.131204
      144.742     0.136113
      144.599     0.141206
      144.456     0.146488
      144.313     0.151968
       144.17     0.157652
      144.028     0.163548
      143.885     0.169664
      143.742     0.176009
      143.599     0.182589
      143.456     0.189415
      143.313     0.196496
       143.17      0.20384
      143.027     0.211459
      142.884     0.219361
      142.741     0.227558
      142.598      0.23606
      142.455     0.244879
      142.312     0.254026
      142.169     0.263514
      142.026     0.273356
      141.883     0.283564
       141.74     0.294152
      141.597     0.305135
      141.454     0.316526
      141.311     0.328342
      141.168     0.340597
      141.025     0.353309
      140.882     0.366493
       140.74     0.380169
      140.597     0.394353
      140.454     0.409064
      140.311     0.424324
      140.168      0.44015
      140.025     0.456565
      139.882     0.473591
      139.739      0.49125
      139.596     0.509565
      139.453     0.528562
       139.31     0.548264
      139.167     0.568699
      139.024     0.589893
      138.881     0.611875
      138.738     0.634673
      138.595     0.658319
      138.452     0.682843
      138.309     0.708278
      138.166     0.734658
      138.023     0.762017
       137.88     0.790392
      137.737     0.819821
      137.595     0.850342
      137.452     0.881997
      137.309     0.914826
      137.166     0.948873
      137.023     0.984184
       136.88      1.02081
      136.737      1.05879
      136.594      1.09817
      136.451      1.13902
      136.308      1.18139
      136.165      1.22533
      136.022      1.27089
      135.879      1.31815
      135.736      1.36715
      135.593      1.41798
       135.45      1.47068
      135.307      1.52534
      135.164      1.58203
      135.021      1.64081
      134.878      1.70178
      134.735        1.765
      134.592      1.83057
       134.45      1.89856
      134.307      1.96907
      134.164      2.04219
      134.021      2.11802
      133.878      2.19665
      133.735       2.2782
      133.592      2.36276
      133.449      2.45046
      133.306      2.54139
      133.163       2.6357
       133.02      2.73349
      132.877       2.8349
      132.734      2.94006
      132.591       3.0491
      132.448      3.16219
      132.305      3.27945
      132.162      3.40104
      132.019      3.52714
      131.876      3.65789
      131.733      3.79347
       131.59      3.93407
      131.447      4.07986
      131.304      4.23103
      131.162      4.38779
      131.019      4.55034
      130.876       4.7189
      130.733      4.89367
       130.59       5.0749
      130.447      5.26282
      130.304      5.45768
      130.161      5.65973
      130.018      5.86924
      129.875      6.08648
      129.732      6.31173
      129.589       6.5453
      129.446      6.78748
      129.303      7.03859
       129.16      7.29896
      129.017      7.56894
      128.874      7.84887
      128.731      8.13912
      128.588      8.44007
      128.445      8.75211
      128.302      9.07565
      128.159      9.41111
      128.017      9.75894
      127.874      10.1196
      127.731      10.4935
      127.588      10.8812
      127.445      11.2832
      127.302         11.7
      127.159      12.1321
      127.016      12.5801
      126.873      13.0446
       126.73      13.5262
      126.587      14.0256
      126.444      14.5433
      126.301      15.0801
      126.158      15.6366
      126.015      16.2136
      125.872      16.8118
      125.729       17.432
      125.586       18.075
      125.443      18.7417
        125.3      19.4328
      125.157      20.1494
      125.014      20.8923
      124.871      21.6625
      124.729       22.461
      124.586      23.2889
      124.443      24.1471
        124.3      25.0369
      124.157      25.9593
      124.014      26.9157
      123.871      27.9071
      123.728       28.935
      123.585      30.0005
      123.442      31.1052
      123.299      32.2505
      123.156      33.4377
      123.013      34.6685
       122.87      35.9445
      122.727      37.2673
      122.584      38.6386
      122.441      40.0601
      122.298      41.5338
      122.155      43.0616
      122.012      44.6453
      121.869      46.2871
      121.726       47.989
      121.584      49.7534
      121.441      51.5823
      121.298      53.4783
      121.155      55.4437
      121.012      57.4812
      120.869      59.5932
      120.726      61.7826
      120.583      64.0521
       120.44      66.4047
      120.297      68.8434
      120.154      71.3714
      120.011      73.9919
      119.868      76.7083
      119.725       79.524
      119.582      82.4428
      119.439      85.4683
      119.296      88.6044
      119.153      91.8552
       119.01      95.2249
      118.867      98.7178
      118.724      102.338
      118.581      106.091
      118.439      109.981
      118.296      114.013
      118.153      118.193
       118.01      122.525
      117.867      127.015
      117.724       131.67
      117.581      136.494
      117.438      141.494
      117.295      146.677
      117.152      152.049
      117.009      157.617
      116.866      163.389
      116.723      169.371
       116.58      175.571
      116.437      181.997
      116.294      188.658
      116.151      195.562
      116.008      202.717
      115.865      210.133
      115.722       217.82
      115.579      225.786
      115.436      234.043
      115.293      242.601
      115.151      251.471
      115.008      260.664
      114.865      270.191
      114.722      280.066
      114.579        290.3
      114.436      300.907
      114.293        311.9
       114.15      323.293
      114.007        335.1
      113.864      347.338
      113.721       360.02
      113.578      373.164
      113.435      386.786
      113.292      400.904
      113.149      415.535
      113.006      430.697
      112.863      446.411
       112.72      462.697
      112.577      479.574
      112.434      497.064
      112.291       515.19
      112.148      533.975
      112.006      553.442
      111.863      573.616
       111.72      594.522
      111.577      616.188
      111.434       638.64
      111.291      661.907
      111.148      686.019
      111.005      711.006
      110.862      736.899
      110.719      763.732
      110.576      791.538
      110.433      820.352
       110.29      850.212
      110.147      881.154
      110.004      913.218
      109.861      946.445
      109.718      980.875
      109.575      1016.55
      109.432      1053.52
      109.289      1091.84
      109.146      1131.53
      109.003      1172.67
       108.86       1215.3
      108.718      1259.46
      108.575      1305.23
      108.432      1352.66
      108.289       1401.8
      108.146      1452.72
      108.003      1505.48
       107.86      1560.15
      107.717       1616.8
      107.574       1675.5
      107.431      1736.32
      107.288      1799.34
      107.145      1864.64
      107.002      1932.29
      106.859       2002.4
      106.716      2075.03
      106.573      2150.29
       106.43      2228.27
      106.287      2309.07
      106.144      2392.78
      106.001      2479.52
      105.858      2569.39
      105.715       2662.5
      105.573      2758.98
       105.43      2858.93
      105.287       2962.5
      105.144      3069.79
      105.001      3180.96
      104.858      3296.14
      104.715      3415.47
      104.572      3539.11
      104.429       3667.2
      104.286      3799.91
      104.143       3937.4
          104      4079.85
      103.857      4227.43
      103.714      4380.33
      103.571      4538.73
      103.428      4702.84
      103.285      4872.85
      103.142      5048.99
      102.999      5231.47
      102.856      5420.52
      102.713      5616.37
       102.57      5819.27
      102.428      6029.46
      102.285      6247.22
      102.142      6472.81
      101.999      6706.51
      101.856      6948.61
      101.713      7199.42
       101.57      7459.24
      101.427       7728.4
      101.284      8007.23
      101.141      8296.08
      100.998      8595.31
      100.855      8905.28
      100.712      9226.38
      100.569      9559.01
      100.426      9903.59
      100.283      10260.5
       100.14      10630.3
      99.9973      11013.3
      99.8543      11410.1
      99.7114        11821
      99.5684      12246.8
      99.4254      12687.8
      99.2825      13144.6
      99.1395      13617.8
      98.9966      14107.9
      98.8536      14615.6
      98.7107      15141.6
      98.5677      15686.3
      98.4248      16250.6
      98.2818        16835
      98.1388      17440.4
      97.9959      18067.5
      97.8529        18717
        97.71      19389.8
       97.567      20086.7
      97.4241      20808.4
      97.2811      21556.1
      97.1382      22330.4
      96.9952      23132.4
      96.8522      23963.2
      96.7093      24823.6
      96.5663      25714.8
      96.4234      26637.8
      96.2804      27593.8
      96.1375        28584
      95.9945      29609.5
      95.8516      30671.7
      95.7086      31771.8
      95.5656      32911.2
      95.4227      34091.3
      95.2797      35313.5
      95.1368      36579.3
      94.9938      37890.2
      94.8509        39248
      94.7079      40654.2
       94.565      42110.5
       94.422      43618.8
      94.2791      45180.8
      94.1361      46798.5
      93.9931      48473.9
      93.8502        50209
      93.7072      52005.9
      93.5643      53866.8
      93.4213        55794
      93.2784      57789.9
      93.1354      59856.8
      92.9925      61997.3
      92.8495      64213.9
      92.7065      66509.5
      92.5636      68886.7
      92.4206      71348.6
      92.2777      73897.9
      92.1347        76538
      91.9918      79271.9
      91.8488      82103.1
      91.7059      85034.8
      91.5629      88070.8
      91.4199      91214.6
       91.277      94470.2
       91.134      97841.4
      90.9911       101332
      90.8481       104947
      90.7052       108690
      90.5622       112566
      90.4193       116580
      90.2763       120736
      90.1333       125040
      89.9904       129496
      89.8474       134110
      89.7045       138888
      89.5615       143835
      89.4186       148958
      89.2756       154262
      89.1327       159755
      88.9897       165441
      88.8467       171330
      88.7038       177426
      88.5608       183739
      88.4179       190275
      88.2749       197043
       88.132       204050
       87.989       211305
      87.8461       218817
      87.7031       226594
      87.5602       234647
      87.4172       242984
      87.2742       251616
      87.1313       260553
      86.9883       269806
      86.8454       279386
      86.7024       289305
      86.5595       299574
      86.4165       310205
      86.2736       321212
      86.1306       332608
      85.9876       344405
      85.8447       356620
      85.7017       369265
      85.5588       382356
      85.4158       395909
      85.2729       409940
      85.1299       424465
       84.987       439503
       84.844       455071
       84.701       471187
      84.5581       487872
      84.4151       505144
      84.2722       523024
      84.1292       541534
      83.9863       560696
      83.8433       580532
      83.7004       601066
      83.5574       622323
      83.4144       644328
      83.2715       667106
      83.1285       690686
      82.9856       715095
      82.8426       740362
      82.6997       766517
      82.5567       793592
      82.4138       821617
      82.2708       850627
      82.1278       880656
      81.9849       911740
      81.8419       943915
       81.699       977219
       81.556  1.01169e+06
      81.4131  1.04737e+06
      81.2701  1.08431e+06
      81.1272  1.12254e+06
      80.9842  1.16211e+06
      80.8412  1.20307e+06
      80.6983  1.24546e+06
      80.5553  1.28934e+06
      80.4124  1.33476e+06
      80.2694  1.38177e+06
      80.1265  1.43042e+06
      79.9835  1.48078e+06
      79.8406   1.5329e+06
      79.6976  1.58685e+06
      79.5547  1.64269e+06
      79.4117  1.70048e+06
      79.2687  1.76029e+06
      79.1258  1.82219e+06
      78.9828  1.88626e+06
      78.8399  1.95257e+06
      78.6969   2.0212e+06
       78.554  2.09222e+06
       78.411  2.16573e+06
      78.2681   2.2418e+06
      78.1251  2.32054e+06
      77.9821  2.40202e+06
      77.8392  2.48635e+06
      77.6962  2.57362e+06
      77.5533  2.66394e+06
      77.4103  2.75741e+06
      77.2674  2.85414e+06
      77.1244  2.95425e+06
      76.9815  3.05785e+06
      76.8385  3.16506e+06
      76.6955    3.276e+06
      76.5526  3.39082e+06
      76.4096  3.50963e+06
      76.2667  3.63259e+06
      76.1237  3.75983e+06
      75.9808   3.8915e+06
      75.8378  4.02775e+06
      75.6949  4.16875e+06
      75.5519  4.31465e+06
      75.4089  4.46564e+06
       75.266  4.62187e+06
       75.123  4.78354e+06
      74.9801  4.95083e+06
      74.8371  5.12394e+06
      74.6942  5.30307e+06
      74.5512  5.48842e+06
      74.4083  5.68022e+06
      74.2653  5.87867e+06
      74.1223  6.08402e+06
      73.9794   6.2965e+06
      73.8364  6.51636e+06
      73.6935  6.74385e+06
      73.5505  6.97923e+06
      73.4076  7.22279e+06
      73.2646  7.47479e+06
      73.1217  7.73553e+06
      72.9787  8.00531e+06
      72.8357  8.28444e+06
      72.6928  8.57325e+06
      72.5498  8.87207e+06
      72.4069  9.18124e+06
      72.2639  9.50112e+06
       72.121  9.83208e+06
       71.978  1.01745e+07
      71.8351  1.05288e+07
      71.6921  1.08953e+07
      71.5492  1.12745e+07
      71.4062  1.16668e+07
      71.2632  1.20728e+07
      71.1203  1.24927e+07
      70.9773  1.29271e+07
      70.8344  1.33766e+07
      70.6914  1.38416e+07
      70.5485  1.43227e+07
      70.4055  1.48204e+07
      70.2626  1.53353e+07
      70.1196  1.58679e+07
      69.9766  1.64189e+07
      69.8337   1.6989e+07
      69.6907  1.75787e+07
      69.5478  1.81888e+07
      69.4048  1.88199e+07
      69.2619  1.94728e+07
      69.1189  2.01482e+07
       68.976  2.08468e+07
       68.833  2.15695e+07
        68.69  2.23172e+07
      68.5471  2.30905e+07
      68.4041  2.38905e+07
      68.2612  2.47181e+07
      68.1182  2.55741e+07
      67.9753  2.64596e+07
      67.8323  2.73756e+07
      67.6894   2.8323e+07
      67.5464  2.93031e+07
      67.4034  3.03168e+07
      67.2605  3.13654e+07
      67.1175    3.245e+07
      66.9746  3.35719e+07
      66.8316  3.47323e+07
      66.6887  3.59326e+07
      66.5457  3.71741e+07
      66.4028  3.84581e+07
      66.2598  3.97863e+07
      66.1168    4.116e+07
      65.9739  4.25809e+07
      65.8309  4.40505e+07
       65.688  4.55704e+07
       65.545  4.71425e+07
      65.4021  4.87684e+07
      65.2591  5.04501e+07
      65.1162  5.21893e+07
      64.9732  5.39881e+07
      64.8302  5.58485e+07
      64.6873  5.77726e+07
      64.5443  5.97625e+07
      64.4014  6.18206e+07
      64.2584   6.3949e+07
      64.1155  6.61502e+07
      63.9725  6.84266e+07
      63.8296  7.07809e+07
      63.6866  7.32156e+07
      63.5437  7.57335e+07
      63.4007  7.83374e+07
      63.2577  8.10302e+07
      63.1148   8.3815e+07
      62.9718  8.66948e+07
      62.8289  8.96729e+07
      62.6859  9.27526e+07
       62.543  9.59373e+07
         62.4  9.92307e+07
      62.2571  1.02636e+08
      62.1141  1.06158e+08
      61.9711    1.098e+08
      61.8282  1.13565e+08
      61.6852  1.17459e+08
      61.5423  1.21486e+08
      61.3993   1.2565e+08
      61.2564  1.29955e+08
      61.1134  1.34407e+08
      60.9705   1.3901e+08
      60.8275   1.4377e+08
      60.6845  1.48692e+08
      60.5416   1.5378e+08
      60.3986  1.59042e+08
      60.2557  1.64483e+08
      60.1127  1.70108e+08
      59.9698  1.75925e+08
      59.8268  1.81939e+08
      59.6839  1.88157e+08
      59.5409  1.94586e+08
      59.3979  2.01233e+08
       59.255  2.08106e+08
       59.112  2.15211e+08
      58.9691  2.22558e+08
      58.8261  2.30153e+08
      58.6832  2.38006e+08
      58.5402  2.46124e+08
      58.3973  2.54518e+08
      58.2543  2.63196e+08
      58.1113  2.72167e+08
      57.9684  2.81442e+08
      57.8254  2.91031e+08
      57.6825  3.00944e+08
      57.5395  3.11193e+08
      57.3966  3.21787e+08
      57.2536   3.3274e+08
      57.1107  3.44063e+08
      56.9677  3.55768e+08
      56.8248  3.67868e+08
      56.6818  3.80377e+08
      56.5388  3.93308e+08
      56.3959  4.06676e+08
      56.2529  4.20494e+08
        56.11  4.34778e+08
       55.967  4.49544e+08
      55.8241  4.64808e+08
      55.6811  4.80585e+08
      55.5382  4.96895e+08
      55.3952  5.13753e+08
      55.2522  5.31179e+08
      55.1093  5.49192e+08
      54.9663  5.67811e+08
      54.8234  5.87056e+08
      54.6804  6.06949e+08
      54.5375   6.2751e+08
      54.3945  6.48762e+08
      54.2516  6.70729e+08
      54.1086  6.93434e+08
      53.9656  7.16901e+08
      53.8227  7.41156e+08
      53.6797  7.66225e+08
      53.5368  7.92136e+08
      53.3938  8.18916e+08
      53.2509  8.46594e+08
      53.1079  8.75201e+08
       52.965  9.04766e+08
       52.822  9.35322e+08
       52.679  9.66902e+08
      52.5361   9.9954e+08
      52.3931  1.03327e+09
      52.2502  1.06813e+09
      52.1072  1.10416e+09
      51.9643  1.14139e+09
      51.8213  1.17987e+09
      51.6784  1.21963e+09
      51.5354  1.26072e+09
      51.3924  1.30319e+09
      51.2495  1.34707e+09
      51.1065  1.39242e+09
      50.9636  1.43929e+09
      50.8206  1.48772e+09
      50.6777  1.53776e+09
      50.5347  1.58948e+09
      50.3918  1.64292e+09
      50.2488  1.69814e+09
      50.1058  1.75521e+09
      49.9629  1.81417e+09
      49.8199   1.8751e+09
       49.677  1.93806e+09
       49.534  2.00311e+09
      49.3911  2.07033e+09
      49.2481  2.13979e+09
      49.1052  2.21155e+09
      48.9622  2.28571e+09
      48.8193  2.36233e+09
      48.6763  2.44149e+09
      48.5333  2.52329e+09
      48.3904   2.6078e+09
      48.2474  2.69512e+09
      48.1045  2.78534e+09
      47.9615  2.87856e+09
      47.8186  2.97486e+09
      47.6756  3.07436e+09
      47.5327  3.17716e+09
      47.3897  3.28337e+09
      47.2467  3.39309e+09
      47.1038  3.50646e+09
      46.9608  3.62357e+09
      46.8179  3.74457e+09
      46.6749  3.86956e+09
       46.532   3.9987e+09
       46.389   4.1321e+09
      46.2461  4.26992e+09
      46.1031   4.4123e+09
      45.9601  4.55937e+09
      45.8172  4.71131e+09
      45.6742  4.86827e+09
      45.5313  5.03041e+09
      45.3883   5.1979e+09
      45.2454  5.37091e+09
      45.1024  5.54964e+09
      44.9595  5.73426e+09
      44.8165  5.92496e+09
      44.6735  6.12195e+09
      44.5306  6.32543e+09
      44.3876  6.53561e+09
      44.2447  6.75271e+09
      44.1017  6.97696e+09
      43.9588  7.20858e+09
      43.8158  7.44783e+09
      43.6729  7.69494e+09
      43.5299  7.95018e+09
      43.3869   8.2138e+09
       43.244  8.48609e+09
       43.101  8.76732e+09
      42.9581  9.05778e+09
      42.8151  9.35777e+09
      42.6722  9.66761e+09
      42.5292  9.98761e+09
      42.3863  1.03181e+10
      42.2433  1.06594e+10
      42.1003  1.10119e+10
      41.9574   1.1376e+10
      41.8144   1.1752e+10
      41.6715  1.21403e+10
      41.5285  1.25412e+10
      41.3856  1.29554e+10
      41.2426   1.3383e+10
      41.0997  1.38246e+10
      40.9567  1.42807e+10
      40.8138  1.47517e+10
      40.6708   1.5238e+10
      40.5278  1.57403e+10
      40.3849  1.62589e+10
