Temperature = 1659.59K
THERMAL DISTRIBUTIONS:
  E, kcal/mol           W1
      145.406     0.105809
      145.263     0.109782
       145.12     0.113903
      144.977     0.118179
      144.834     0.122615
      144.691     0.127217
      144.548     0.131991
      144.405     0.136944
      144.262     0.142082
      144.119     0.147412
      143.976     0.152942
      143.833     0.158679
       143.69     0.164631
      143.547     0.170805
      143.404     0.177209
      143.261     0.183854
      143.118     0.190747
      142.975     0.197897
      142.832     0.205315
      142.689      0.21301
      142.546     0.220993
      142.404     0.229274
      142.261     0.237865
      142.118     0.246776
      141.975     0.256021
      141.832      0.26561
      141.689     0.275558
      141.546     0.285878
      141.403     0.296583
       141.26     0.307688
      141.117     0.319207
      140.974     0.331156
      140.831     0.343552
      140.688      0.35641
      140.545     0.369748
      140.402     0.383584
      140.259     0.397936
      140.116     0.412823
      139.973     0.428266
       139.83     0.444285
      139.687     0.460901
      139.544     0.478138
      139.401     0.496016
      139.259     0.514562
      139.116     0.533799
      138.973     0.553753
       138.83     0.574451
      138.687      0.59592
      138.544     0.618189
      138.401     0.641288
      138.258     0.665248
      138.115     0.690101
      137.972     0.715879
      137.829     0.742617
      137.686     0.770351
      137.543     0.799118
        137.4     0.828956
      137.257     0.859905
      137.114     0.892006
      136.971     0.925302
      136.828     0.959837
      136.685     0.995658
      136.542      1.03281
      136.399      1.07135
      136.256      1.11132
      136.114      1.15277
      135.971      1.19577
      135.828      1.24037
      135.685      1.28662
      135.542       1.3346
      135.399      1.38436
      135.256      1.43596
      135.113      1.48949
       134.97      1.54501
      134.827      1.60259
      134.684      1.66231
      134.541      1.72424
      134.398      1.78848
      134.255      1.85511
      134.112      1.92421
      133.969      1.99587
      133.826       2.0702
      133.683      2.14728
       133.54      2.22723
      133.397      2.31015
      133.254      2.39614
      133.111      2.48532
      132.968      2.57782
      132.826      2.67374
      132.683      2.77323
       132.54       2.8764
      132.397       2.9834
      132.254      3.09438
      132.111      3.20946
      131.968      3.32881
      131.825      3.45259
      131.682      3.58096
      131.539      3.71408
      131.396      3.85214
      131.253      3.99531
       131.11      4.14379
      130.967      4.29777
      130.824      4.45745
      130.681      4.62305
      130.538      4.79478
      130.395      4.97287
      130.252      5.15756
      130.109      5.34908
      129.966       5.5477
      129.823      5.75366
      129.681      5.96725
      129.538      6.18874
      129.395      6.41843
      129.252      6.65662
      129.109      6.90361
      128.966      7.15975
      128.823      7.42535
       128.68      7.70078
      128.537      7.98639
      128.394      8.28257
      128.251      8.58969
      128.108      8.90816
      127.965      9.23841
      127.822      9.58086
      127.679      9.93596
      127.536      10.3042
      127.393       10.686
       127.25      11.0819
      127.107      11.4925
      126.964      11.9182
      126.821      12.3596
      126.678      12.8174
      126.535       13.292
      126.393      13.7841
       126.25      14.2944
      126.107      14.8236
      125.964      15.3722
      125.821      15.9411
      125.678       16.531
      125.535      17.1427
      125.392      17.7769
      125.249      18.4345
      125.106      19.1163
      124.963      19.8233
       124.82      20.5563
      124.677      21.3164
      124.534      22.1045
      124.391      22.9216
      124.248      23.7688
      124.105      24.6472
      123.962       25.558
      123.819      26.5023
      123.676      27.4814
      123.533      28.4966
       123.39      29.5491
      123.248      30.6404
      123.105      31.7718
      122.962      32.9449
      122.819      34.1612
      122.676      35.4222
      122.533      36.7296
       122.39      38.0851
      122.247      39.4904
      122.104      40.9474
      121.961      42.4581
      121.818      44.0242
      121.675      45.6479
      121.532      47.3314
      121.389      49.0767
      121.246      50.8861
      121.103       52.762
       120.96      54.7068
      120.817      56.7231
      120.674      58.8134
      120.531      60.9805
      120.388      63.2272
      120.245      65.5564
      120.103      67.9711
       119.96      70.4744
      119.817      73.0696
      119.674      75.7601
      119.531      78.5492
      119.388      81.4407
      119.245      84.4383
      119.102      87.5458
      118.959      90.7673
      118.816      94.1069
      118.673       97.569
       118.53      101.158
      118.387      104.879
      118.244      108.735
      118.101      112.734
      117.958      116.879
      117.815      121.175
      117.672      125.629
      117.529      130.246
      117.386      135.033
      117.243      139.994
        117.1      145.137
      116.957      150.469
      116.815      155.995
      116.672      161.724
      116.529      167.663
      116.386      173.818
      116.243        180.2
        116.1      186.814
      115.957       193.67
      115.814      200.777
      115.671      208.144
      115.528      215.781
      115.385      223.696
      115.242      231.901
      115.099      240.406
      114.956      249.221
      114.813      258.359
       114.67       267.83
      114.527      277.647
      114.384      287.823
      114.241       298.37
      114.098      309.303
      113.955      320.635
      113.812       332.38
       113.67      344.554
      113.527      357.172
      113.384      370.251
      113.241      383.806
      113.098      397.857
      112.955      412.419
      112.812      427.513
      112.669      443.157
      112.526      459.372
      112.383      476.177
       112.24      493.595
      112.097      511.648
      111.954      530.359
      111.811      549.751
      111.668       569.85
      111.525      590.681
      111.382       612.27
      111.239      634.646
      111.096      657.836
      110.953      681.871
       110.81       706.78
      110.667      732.596
      110.524      759.351
      110.382      787.079
      110.239      815.817
      110.096      845.599
      109.953      876.465
       109.81      908.453
      109.667      941.604
      109.524       975.96
      109.381      1011.57
      109.238      1048.46
      109.095       1086.7
      108.952      1126.33
      108.809       1167.4
      108.666      1209.96
      108.523      1254.07
       108.38      1299.78
      108.237      1347.14
      108.094      1396.23
      107.951       1447.1
      107.808      1499.81
      107.665      1554.44
      107.522      1611.05
      107.379      1669.71
      107.237       1730.5
      107.094      1793.49
      106.951      1858.77
      106.808      1926.42
      106.665      1996.52
      106.522      2069.15
      106.379      2144.42
      106.236      2222.42
      106.093      2303.25
       105.95         2387
      105.807      2473.78
      105.664      2563.71
      105.521      2656.89
      105.378      2753.45
      105.235       2853.5
      105.092      2957.17
      104.949       3064.6
      104.806      3175.91
      104.663      3291.24
       104.52      3410.75
      104.377      3534.58
      104.234      3662.89
      104.092      3795.84
      103.949      3933.59
      103.806      4076.33
      103.663      4224.22
       103.52      4377.45
      103.377      4536.22
      103.234      4700.73
      103.091      4871.17
      102.948      5047.78
      102.805      5230.75
      102.662      5420.34
      102.519      5616.76
      102.376      5820.28
      102.233      6031.14
       102.09       6249.6
      101.947      6475.95
      101.804      6710.46
      101.661      6953.43
      101.518      7205.16
      101.375      7465.96
      101.232      7736.16
      101.089       8016.1
      100.946      8306.13
      100.804      8606.61
      100.661      8917.92
      100.518      9240.43
      100.375      9574.56
      100.232      9920.72
      100.089      10279.3
      99.9458      10650.9
      99.8028      11035.8
      99.6599      11434.5
      99.5169      11847.6
       99.374      12275.6
       99.231        12719
      99.0881      13178.3
      98.9451      13654.1
      98.8022        14147
      98.6592      14657.6
      98.5162      15186.6
      98.3733      15734.6
      98.2303      16302.3
      98.0874      16890.4
      97.9444      17499.6
      97.8015      18130.7
      97.6585      18784.4
      97.5156      19461.6
      97.3726      20163.1
      97.2296      20889.8
      97.0867      21642.6
      96.9437      22422.3
      96.8008      23230.1
      96.6578      24066.8
      96.5149      24933.5
      96.3719      25831.3
       96.229      26761.3
       96.086      27724.6
      95.9431      28722.4
      95.8001        29756
      95.6571      30826.6
      95.5142      31935.6
      95.3712      33084.3
      95.2283      34274.1
      95.0853      35506.5
      94.9424        36783
      94.7994      38105.2
      94.6565      39474.8
      94.5135      40893.3
      94.3705      42362.6
      94.2276      43884.4
      94.0846      45460.6
      93.9417      47093.2
      93.7987      48784.2
      93.6558      50535.6
      93.5128      52349.6
      93.3699      54228.4
      93.2269      56174.3
      93.0839      58189.8
       92.941      60277.2
       92.798      62439.2
      92.6551      64678.3
      92.5121      66997.4
      92.3692      69399.2
      92.2262      71886.7
      92.0833        74463
      91.9403      77131.2
      91.7973      79894.6
      91.6544      82756.5
      91.5114      85720.4
      91.3685        88790
      91.2255      91968.9
      91.0826      95261.2
      90.9396      98670.8
      90.7967       102202
      90.6537       105859
      90.5107       109646
      90.3678       113567
      90.2248       117629
      90.0819       121835
      89.9389       126191
       89.796       130701
       89.653       135372
      89.5101       140210
      89.3671       145219
      89.2242       150406
      89.0812       155778
      88.9382       161341
      88.7953       167102
      88.6523       173067
      88.5094       179244
      88.3664       185640
      88.2235       192264
      88.0805       199122
      87.9376       206225
      87.7946       213579
      87.6516       221194
      87.5087       229080
      87.3657       237245
      87.2228       245700
      87.0798       254454
      86.9369       263519
      86.7939       272906
       86.651       282625
       86.508       292688
       86.365       303108
      86.2221       313898
      86.0791       325069
      85.9362       336636
      85.7932       348612
      85.6503       361012
      85.5073       373852
      85.3644       387145
      85.2214       400909
      85.0784       415160
      84.9355       429914
      84.7925       445191
      84.6496       461007
      84.5066       477383
      84.3637       494337
      84.2207       511890
      84.0778       530064
      83.9348       548879
      83.7918       568359
      83.6489       588526
      83.5059       609406
       83.363       631022
        83.22       653401
      83.0771       676570
      82.9341       700556
      82.7912       725388
      82.6482       751096
      82.5052       777710
      82.3623       805262
      82.2193       833785
      82.0764       863313
      81.9334       893881
      81.7905       925526
      81.6475       958285
      81.5046       992198
      81.3616   1.0273e+06
      81.2187  1.06365e+06
      81.0757  1.10127e+06
      80.9327  1.14021e+06
      80.7898  1.18053e+06
      80.6468  1.22226e+06
      80.5039  1.26546e+06
      80.3609  1.31017e+06
       80.218  1.35646e+06
       80.075  1.40438e+06
      79.9321  1.45398e+06
      79.7891  1.50532e+06
      79.6461  1.55847e+06
      79.5032  1.61348e+06
      79.3602  1.67042e+06
      79.2173  1.72936e+06
      79.0743  1.79037e+06
      78.9314  1.85352e+06
      78.7884  1.91889e+06
      78.6455  1.98655e+06
      78.5025  2.05658e+06
      78.3595  2.12906e+06
      78.2166  2.20409e+06
      78.0736  2.28175e+06
      77.9307  2.36212e+06
      77.7877  2.44532e+06
      77.6448  2.53142e+06
      77.5018  2.62054e+06
      77.3589  2.71279e+06
      77.2159  2.80826e+06
      77.0729  2.90707e+06
        76.93  3.00934e+06
       76.787  3.11518e+06
      76.6441  3.22473e+06
      76.5011  3.33811e+06
      76.3582  3.45545e+06
      76.2152   3.5769e+06
      76.0723  3.70259e+06
      75.9293  3.83267e+06
      75.7863  3.96729e+06
      75.6434  4.10662e+06
      75.5004  4.25081e+06
      75.3575  4.40003e+06
      75.2145  4.55446e+06
      75.0716  4.71429e+06
      74.9286  4.87968e+06
      74.7857  5.05085e+06
      74.6427  5.22799e+06
      74.4997   5.4113e+06
      74.3568  5.60101e+06
      74.2138  5.79732e+06
      74.0709  6.00048e+06
      73.9279  6.21071e+06
       73.785  6.42827e+06
       73.642  6.65341e+06
      73.4991  6.88638e+06
      73.3561  7.12746e+06
      73.2132  7.37693e+06
      73.0702  7.63509e+06
      72.9272  7.90222e+06
      72.7843  8.17865e+06
      72.6413  8.46468e+06
      72.4984  8.76066e+06
      72.3554  9.06693e+06
      72.2125  9.38385e+06
      72.0695  9.71177e+06
      71.9266  1.00511e+07
      71.7836  1.04022e+07
      71.6406  1.07655e+07
      71.4977  1.11414e+07
      71.3547  1.15303e+07
      71.2118  1.19328e+07
      71.0688  1.23492e+07
      70.9259    1.278e+07
      70.7829  1.32258e+07
        70.64   1.3687e+07
       70.497  1.41643e+07
       70.354   1.4658e+07
      70.2111  1.51689e+07
      70.0681  1.56975e+07
      69.9252  1.62444e+07
      69.7822  1.68102e+07
      69.6393  1.73956e+07
      69.4963  1.80012e+07
      69.3534  1.86278e+07
      69.2104  1.92761e+07
      69.0674  1.99468e+07
      68.9245  2.06407e+07
      68.7815  2.13586e+07
      68.6386  2.21013e+07
      68.4956  2.28697e+07
      68.3527  2.36646e+07
      68.2097   2.4487e+07
      68.0668  2.53377e+07
      67.9238  2.62179e+07
      67.7808  2.71284e+07
      67.6379  2.80703e+07
      67.4949  2.90448e+07
       67.352  3.00528e+07
       67.209  3.10956e+07
      67.0661  3.21744e+07
      66.9231  3.32903e+07
      66.7802  3.44447e+07
      66.6372  3.56389e+07
      66.4943  3.68742e+07
      66.3513  3.81521e+07
      66.2083  3.94739e+07
      66.0654  4.08413e+07
      65.9224  4.22557e+07
      65.7795  4.37188e+07
      65.6365  4.52322e+07
      65.4936  4.67976e+07
      65.3506  4.84169e+07
      65.2077  5.00918e+07
      65.0647  5.18243e+07
      64.9217  5.36163e+07
      64.7788  5.54699e+07
      64.6358  5.73871e+07
      64.4929  5.93702e+07
      64.3499  6.14213e+07
       64.207  6.35429e+07
       64.064  6.57372e+07
      63.9211  6.80067e+07
      63.7781  7.03542e+07
      63.6351  7.27821e+07
      63.4922  7.52932e+07
      63.3492  7.78903e+07
      63.2063  8.05765e+07
      63.0633  8.33547e+07
      62.9204   8.6228e+07
      62.7774  8.91996e+07
      62.6345   9.2273e+07
      62.4915  9.54516e+07
      62.3485  9.87389e+07
      62.2056  1.02139e+08
      62.0626  1.05655e+08
      61.9197  1.09291e+08
      61.7767  1.13051e+08
      61.6338   1.1694e+08
      61.4908  1.20962e+08
      61.3479  1.25121e+08
      61.2049  1.29422e+08
      61.0619  1.33871e+08
       60.919   1.3847e+08
       60.776  1.43227e+08
      60.6331  1.48146e+08
      60.4901  1.53233e+08
      60.3472  1.58493e+08
      60.2042  1.63933e+08
      60.0613  1.69558e+08
      59.9183  1.75374e+08
      59.7753  1.81389e+08
      59.6324  1.87608e+08
      59.4894   1.9404e+08
      59.3465   2.0069e+08
      59.2035  2.07566e+08
      59.0606  2.14676e+08
      58.9176  2.22028e+08
      58.7747   2.2963e+08
      58.6317  2.37491e+08
      58.4888  2.45619e+08
      58.3458  2.54022e+08
      58.2028  2.62711e+08
      58.0599  2.71696e+08
      57.9169  2.80985e+08
       57.774   2.9059e+08
       57.631   3.0052e+08
      57.4881  3.10787e+08
      57.3451  3.21403e+08
      57.2022  3.32378e+08
      57.0592  3.43726e+08
      56.9162  3.55458e+08
      56.7733  3.67587e+08
      56.6303  3.80127e+08
      56.4874  3.93092e+08
      56.3444  4.06496e+08
      56.2015  4.20353e+08
      56.0585   4.3468e+08
      55.9156   4.4949e+08
      55.7726  4.64802e+08
      55.6296  4.80631e+08
      55.4867  4.96996e+08
      55.3437  5.13913e+08
      55.2008  5.31402e+08
      55.0578  5.49481e+08
      54.9149  5.68171e+08
      54.7719  5.87492e+08
       54.629  6.07464e+08
       54.486  6.28111e+08
       54.343  6.49453e+08
      54.2001  6.71516e+08
      54.0571  6.94322e+08
      53.9142  7.17896e+08
      53.7712  7.42265e+08
      53.6283  7.67454e+08
      53.4853  7.93492e+08
      53.3424  8.20406e+08
      53.1994  8.48226e+08
      53.0564  8.76982e+08
      52.9135  9.06705e+08
      52.7705  9.37427e+08
      52.6276  9.69182e+08
      52.4846    1.002e+09
      52.3417  1.03593e+09
      52.1987  1.07099e+09
      52.0558  1.10724e+09
      51.9128  1.14469e+09
      51.7698  1.18341e+09
      51.6269  1.22343e+09
      51.4839  1.26478e+09
       51.341  1.30753e+09
       51.198   1.3517e+09
      51.0551  1.39736e+09
      50.9121  1.44455e+09
      50.7692  1.49331e+09
      50.6262  1.54371e+09
      50.4833   1.5958e+09
      50.3403  1.64963e+09
      50.1973  1.70526e+09
      50.0544  1.76275e+09
      49.9114  1.82216e+09
      49.7685  1.88356e+09
      49.6255  1.94702e+09
      49.4826  2.01259e+09
      49.3396  2.08035e+09
      49.1967  2.15037e+09
      49.0537  2.22273e+09
      48.9107  2.29751e+09
      48.7678  2.37478e+09
      48.6248  2.45463e+09
      48.4819  2.53713e+09
      48.3389  2.62239e+09
       48.196  2.71049e+09
       48.053  2.80153e+09
      47.9101  2.89559e+09
      47.7671  2.99279e+09
      47.6241  3.09322e+09
      47.4812  3.19699e+09
      47.3382  3.30422e+09
      47.1953  3.41501e+09
      47.0523  3.52948e+09
      46.9094  3.64776e+09
      46.7664  3.76996e+09
      46.6235  3.89623e+09
      46.4805  4.02668e+09
      46.3375  4.16147e+09
      46.1946  4.30073e+09
      46.0516   4.4446e+09
      45.9087  4.59325e+09
      45.7657  4.74683e+09
      45.6228  4.90549e+09
      45.4798  5.06942e+09
      45.3369  5.23877e+09
      45.1939  5.41372e+09
      45.0509  5.59447e+09
       44.908   5.7812e+09
       44.765  5.97411e+09
      44.6221  6.17339e+09
      44.4791  6.37927e+09
      44.3362  6.59194e+09
      44.1932  6.81165e+09
      44.0503  7.03861e+09
      43.9073  7.27306e+09
      43.7643  7.51525e+09
      43.6214  7.76543e+09
      43.4784  8.02387e+09
      43.3355  8.29082e+09
      43.1925  8.56658e+09
      43.0496  8.85142e+09
      42.9066  9.14565e+09
      42.7637  9.44956e+09
      42.6207  9.76349e+09
      42.4778  1.00877e+10
      42.3348  1.04227e+10
      42.1918  1.07686e+10
      42.0489  1.11259e+10
      41.9059   1.1495e+10
       41.763  1.18761e+10
        41.62  1.22698e+10
      41.4771  1.26765e+10
      41.3341  1.30965e+10
      41.1912  1.35302e+10
      41.0482  1.39782e+10
      40.9052  1.44409e+10
      40.7623  1.49187e+10
      40.6193  1.54122e+10
      40.4764  1.59219e+10
      40.3334  1.64483e+10
      40.1905  1.69919e+10
      40.0475  1.75533e+10
