Temperature = 1663.84K
THERMAL DISTRIBUTIONS:
  E, kcal/mol           W1
      145.743     0.110676
        145.6      0.11482
      145.457     0.119119
      145.314     0.123578
      145.171     0.128203
      145.028     0.133001
      144.885     0.137978
      144.742     0.143141
      144.599     0.148497
      144.456     0.154052
      144.313     0.159815
       144.17     0.165792
      144.028     0.171993
      143.885     0.178425
      143.742     0.185096
      143.599     0.192017
      143.456     0.199195
      143.313     0.206641
       143.17     0.214365
      143.027     0.222377
      142.884     0.230687
      142.741     0.239307
      142.598     0.248248
      142.455     0.257522
      142.312     0.267142
      142.169      0.27712
      142.026      0.28747
      141.883     0.298205
       141.74      0.30934
      141.597      0.32089
      141.454     0.332869
      141.311     0.345295
      141.168     0.358183
      141.025     0.371551
      140.882     0.385416
       140.74     0.399797
      140.597     0.414714
      140.454     0.430185
      140.311     0.446232
      140.168     0.462876
      140.025     0.480138
      139.882     0.498043
      139.739     0.516614
      139.596     0.535875
      139.453     0.555852
       139.31     0.576571
      139.167     0.598061
      139.024      0.62035
      138.881     0.643466
      138.738     0.667442
      138.595     0.692308
      138.452     0.718099
      138.309     0.744847
      138.166     0.772588
      138.023      0.80136
       137.88       0.8312
      137.737     0.862149
      137.595     0.894246
      137.452     0.927534
      137.309     0.962059
      137.166     0.997864
      137.023        1.035
       136.88      1.07351
      136.737      1.11345
      136.594      1.15487
      136.451      1.19783
      136.308      1.24239
      136.165      1.28859
      136.022      1.33651
      135.879       1.3862
      135.736      1.43774
      135.593      1.49119
       135.45      1.54661
      135.307       1.6041
      135.164      1.66371
      135.021      1.72553
      134.878      1.78964
      134.735      1.85613
      134.592      1.92508
       134.45      1.99658
      134.307      2.07073
      134.164      2.14763
      134.021      2.22737
      133.878      2.31006
      133.735      2.39582
      133.592      2.48475
      133.449      2.57697
      133.306       2.6726
      133.163      2.77178
       133.02      2.87462
      132.877      2.98126
      132.734      3.09185
      132.591      3.20653
      132.448      3.32545
      132.305      3.44876
      132.162      3.57664
      132.019      3.70924
      131.876      3.84674
      131.733      3.98933
       131.59      4.13718
      131.447       4.2905
      131.304      4.44948
      131.162      4.61433
      131.019      4.78527
      130.876      4.96253
      130.733      5.14633
       130.59      5.33691
      130.447      5.53454
      130.304      5.73945
      130.161      5.95194
      130.018      6.17226
      129.875      6.40071
      129.732       6.6376
      129.589      6.88322
      129.446       7.1379
      129.303      7.40198
       129.16       7.6758
      129.017      7.95971
      128.874      8.25409
      128.731      8.55933
      128.588      8.87581
      128.445      9.20396
      128.302      9.54421
      128.159      9.89699
      128.017      10.2628
      127.874       10.642
      127.731      11.0353
      127.588       11.443
      127.445      11.8657
      127.302       12.304
      127.159      12.7584
      127.016      13.2296
      126.873      13.7181
       126.73      14.2246
      126.587      14.7497
      126.444      15.2942
      126.301      15.8586
      126.158      16.4439
      126.015      17.0507
      125.872      17.6797
      125.729       18.332
      125.586      19.0082
      125.443      19.7093
        125.3      20.4361
      125.157      21.1897
      125.014      21.9709
      124.871      22.7809
      124.729      23.6206
      124.586      24.4912
      124.443      25.3938
        124.3      26.3295
      124.157      27.2996
      124.014      28.3053
      123.871      29.3479
      123.728      30.4288
      123.585      31.5494
      123.442      32.7111
      123.299      33.9155
      123.156       35.164
      123.013      36.4584
       122.87      37.8002
      122.727      39.1913
      122.584      40.6333
      122.441      42.1283
      122.298      43.6781
      122.155      45.2847
      122.012      46.9502
      121.869      48.6767
      121.726      50.4665
      121.584       52.322
      121.441      54.2453
      121.298      56.2392
      121.155      58.3061
      121.012      60.4487
      120.869      62.6698
      120.726      64.9722
      120.583      67.3588
       120.44      69.8329
      120.297      72.3975
      120.154       75.056
      120.011      77.8118
      119.868      80.6684
      119.725      83.6295
      119.582      86.6989
      119.439      89.8806
      119.296      93.1787
      119.153      96.5973
       119.01      100.141
      118.867      103.814
      118.724      107.622
      118.581      111.568
      118.439      115.659
      118.296      119.899
      118.153      124.295
       118.01       128.85
      117.867      133.572
      117.724      138.467
      117.581       143.54
      117.438      148.799
      117.295      154.249
      117.152      159.899
      117.009      165.755
      116.866      171.824
      116.723      178.115
       116.58      184.635
      116.437      191.393
      116.294      198.397
      116.151      205.657
      116.008      213.182
      115.865      220.981
      115.722      229.065
      115.579      237.443
      115.436      246.126
      115.293      255.125
      115.151      264.453
      115.008       274.12
      114.865       284.14
      114.722      294.524
      114.579      305.287
      114.436      316.441
      114.293      328.001
       114.15      339.982
      114.007        352.4
      113.864      365.269
      113.721      378.606
      113.578      392.428
      113.435      406.754
      113.292        421.6
      113.149      436.986
      113.006      452.932
      112.863      469.457
       112.72      486.583
      112.577      504.331
      112.434      522.725
      112.291      541.787
      112.148      561.541
      112.006      582.013
      111.863      603.228
       111.72      625.214
      111.577      647.998
      111.434      671.609
      111.291      696.077
      111.148      721.434
      111.005       747.71
      110.862       774.94
      110.719      803.158
      110.576        832.4
      110.433      862.702
       110.29      894.103
      110.147      926.642
      110.004      960.362
      109.861      995.303
      109.718      1031.51
      109.575      1069.03
      109.432      1107.91
      109.289       1148.2
      109.146      1189.95
      109.003      1233.21
       108.86      1278.03
      108.718      1324.48
      108.575      1372.61
      108.432      1422.49
      108.289      1474.17
      108.146      1527.71
      108.003       1583.2
       107.86      1640.69
      107.717      1700.27
      107.574      1761.99
      107.431      1825.95
      107.288      1892.23
      107.145      1960.89
      107.002      2032.04
      106.859      2105.77
      106.716      2182.15
      106.573       2261.3
       106.43       2343.3
      106.287      2428.27
      106.144      2516.31
      106.001      2607.52
      105.858      2702.03
      105.715      2799.95
      105.573       2901.4
       105.43      3006.52
      105.287      3115.43
      105.144      3228.26
      105.001      3345.17
      104.858       3466.3
      104.715      3591.79
      104.572       3721.8
      104.429      3856.51
      104.286      3996.07
      104.143      4140.66
          104      4290.46
      103.857      4445.66
      103.714      4606.45
      103.571      4773.03
      103.428       4945.6
      103.285       5124.4
      103.142      5309.63
      102.999      5501.53
      102.856      5700.33
      102.713      5906.29
       102.57      6119.66
      102.428      6340.71
      102.285      6569.71
      102.142      6806.94
      101.999      7052.71
      101.856      7307.31
      101.713      7571.06
       101.57       7844.3
      101.427      8127.35
      101.284      8420.58
      101.141      8724.34
      100.998      9039.01
      100.855      9364.98
      100.712      9702.66
      100.569      10052.5
      100.426      10414.8
      100.283      10790.2
       100.14        11179
      99.9973      11581.8
      99.8543      11999.1
      99.7114      12431.3
      99.5684        12879
      99.4254      13342.7
      99.2825      13823.1
      99.1395      14320.7
      98.9966      14836.2
      98.8536      15370.1
      98.7107      15923.2
      98.5677        16496
      98.4248      17089.4
      98.2818      17704.1
      98.1388      18340.7
      97.9959      19000.2
      97.8529      19683.2
        97.71      20390.7
       97.567      21123.5
      97.4241      21882.6
      97.2811      22668.8
      97.1382      23483.1
      96.9952      24326.5
      96.8522      25200.1
      96.7093        26105
      96.5663      27042.2
      96.4234      28012.8
      96.2804      29018.2
      96.1375      30059.5
      95.9945        31138
      95.8516        32255
      95.7086      33411.9
      95.5656      34610.1
      95.4227      35851.1
      95.2797      37136.3
      95.1368      38467.5
      94.9938      39846.1
      94.8509        41274
      94.7079      42752.7
       94.565      44284.2
       94.422      45870.3
      94.2791        47513
      94.1361      49214.2
      93.9931      50976.1
      93.8502      52800.8
      93.7072      54690.4
      93.5643      56647.4
      93.4213      58674.1
      93.2784      60772.9
      93.1354      62946.5
      92.9925      65197.5
      92.8495      67528.6
      92.7065      69942.6
      92.5636      72442.6
      92.4206      75031.5
      92.2777      77712.5
      92.1347      80488.8
      91.9918      83363.9
      91.8488      86341.1
      91.7059      89424.2
      91.5629      92616.9
      91.4199        95923
       91.277      99346.6
       91.134       102892
      90.9911       106563
      90.8481       110364
      90.7052       114301
      90.5622       118377
      90.4193       122598
      90.2763       126968
      90.1333       131494
      89.9904       136180
      89.8474       141033
      89.7045       146057
      89.5615       151260
      89.4186       156647
      89.2756       162225
      89.1327       168001
      88.9897       173981
      88.8467       180173
      88.7038       186585
      88.5608       193223
      88.4179       200097
      88.2749       207214
       88.132       214583
       87.989       222212
      87.8461       230112
      87.7031       238290
      87.5602       246759
      87.4172       255526
      87.2742       264604
      87.1313       274002
      86.9883       283733
      86.8454       293808
      86.7024       304238
      86.5595       315037
      86.4165       326217
      86.2736       337792
      86.1306       349776
      85.9876       362183
      85.8447       375027
      85.7017       388325
      85.5588       402092
      85.4158       416345
      85.2729       431100
      85.1299       446375
       84.987       462189
       84.844       478560
       84.701       495509
      84.5581       513054
      84.4151       531218
      84.2722       550021
      84.1292       569486
      83.9863       589637
      83.8433       610497
      83.7004       632091
      83.5574       654445
      83.4144       677586
      83.2715       701540
      83.1285       726337
      82.9856       752006
      82.8426       778577
      82.6997       806082
      82.5567       834554
      82.4138       864026
      82.2708       894534
      82.1278       926113
      81.9849       958801
      81.8419       992636
       81.699  1.02766e+06
       81.556  1.06391e+06
      81.4131  1.10144e+06
      81.2701  1.14028e+06
      81.1272  1.18048e+06
      80.9842  1.22209e+06
      80.8412  1.26517e+06
      80.6983  1.30975e+06
      80.5553  1.35589e+06
      80.4124  1.40365e+06
      80.2694  1.45309e+06
      80.1265  1.50426e+06
      79.9835  1.55721e+06
      79.8406  1.61203e+06
      79.6976  1.66876e+06
      79.5547  1.72748e+06
      79.4117  1.78825e+06
      79.2687  1.85115e+06
      79.1258  1.91624e+06
      78.9828  1.98362e+06
      78.8399  2.05335e+06
      78.6969  2.12552e+06
       78.554  2.20021e+06
       78.411  2.27751e+06
      78.2681  2.35752e+06
      78.1251  2.44031e+06
      77.9821    2.526e+06
      77.8392  2.61468e+06
      77.6962  2.70646e+06
      77.5533  2.80144e+06
      77.4103  2.89974e+06
      77.2674  3.00146e+06
      77.1244  3.10673e+06
      76.9815  3.21568e+06
      76.8385  3.32842e+06
      76.6955  3.44509e+06
      76.5526  3.56584e+06
      76.4096  3.69078e+06
      76.2667  3.82008e+06
      76.1237  3.95389e+06
      75.9808  4.09236e+06
      75.8378  4.23564e+06
      75.6949  4.38392e+06
      75.5519  4.53735e+06
      75.4089  4.69613e+06
       75.266  4.86043e+06
       75.123  5.03044e+06
      74.9801  5.20637e+06
      74.8371  5.38841e+06
      74.6942  5.57679e+06
      74.5512  5.77171e+06
      74.4083   5.9734e+06
      74.2653   6.1821e+06
      74.1223  6.39805e+06
      73.9794  6.62149e+06
      73.8364   6.8527e+06
      73.6935  7.09193e+06
      73.5505  7.33946e+06
      73.4076  7.59558e+06
      73.2646  7.86059e+06
      73.1217  8.13479e+06
      72.9787   8.4185e+06
      72.8357  8.71204e+06
      72.6928  9.01575e+06
      72.5498     9.33e+06
      72.4069  9.65512e+06
      72.2639  9.99151e+06
       72.121  1.03396e+07
       71.978  1.06996e+07
      71.8351  1.10722e+07
      71.6921  1.14576e+07
      71.5492  1.18564e+07
      71.4062   1.2269e+07
      71.2632  1.26959e+07
      71.1203  1.31375e+07
      70.9773  1.35944e+07
      70.8344   1.4067e+07
      70.6914   1.4556e+07
      70.5485  1.50619e+07
      70.4055  1.55853e+07
      70.2626  1.61268e+07
      70.1196  1.66869e+07
      69.9766  1.72664e+07
      69.8337  1.78659e+07
      69.6907   1.8486e+07
      69.5478  1.91276e+07
      69.4048  1.97913e+07
      69.2619  2.04778e+07
      69.1189  2.11881e+07
       68.976  2.19228e+07
       68.833  2.26828e+07
        68.69   2.3469e+07
      68.5471  2.42823e+07
      68.4041  2.51236e+07
      68.2612  2.59939e+07
      68.1182  2.68941e+07
      67.9753  2.78253e+07
      67.8323  2.87885e+07
      67.6894  2.97849e+07
      67.5464  3.08155e+07
      67.4034  3.18815e+07
      67.2605  3.29842e+07
      67.1175  3.41248e+07
      66.9746  3.53046e+07
      66.8316  3.65249e+07
      66.6887  3.77871e+07
      66.5457  3.90927e+07
      66.4028  4.04431e+07
      66.2598  4.18398e+07
      66.1168  4.32844e+07
      65.9739  4.47786e+07
      65.8309   4.6324e+07
       65.688  4.79224e+07
       65.545  4.95756e+07
      65.4021  5.12855e+07
      65.2591  5.30539e+07
      65.1162  5.48829e+07
      64.9732  5.67746e+07
      64.8302   5.8731e+07
      64.6873  6.07544e+07
      64.5443   6.2847e+07
      64.4014  6.50112e+07
      64.2584  6.72495e+07
      64.1155  6.95643e+07
      63.9725  7.19582e+07
      63.8296   7.4434e+07
      63.6866  7.69944e+07
      63.5437  7.96422e+07
      63.4007  8.23805e+07
      63.2577  8.52123e+07
      63.1148  8.81408e+07
      62.9718  9.11693e+07
      62.8289  9.43011e+07
      62.6859  9.75397e+07
       62.543  1.00889e+08
         62.4  1.04352e+08
      62.2571  1.07933e+08
      62.1141  1.11637e+08
      61.9711  1.15466e+08
      61.8282  1.19427e+08
      61.6852  1.23522e+08
      61.5423  1.27756e+08
      61.3993  1.32134e+08
      61.2564  1.36662e+08
      61.1134  1.41344e+08
      60.9705  1.46184e+08
      60.8275   1.5119e+08
      60.6845  1.56366e+08
      60.5416  1.61717e+08
      60.3986  1.67251e+08
      60.2557  1.72972e+08
      60.1127  1.78888e+08
      59.9698  1.85005e+08
      59.8268  1.91329e+08
      59.6839  1.97868e+08
      59.5409  2.04629e+08
      59.3979  2.11619e+08
       59.255  2.18846e+08
       59.112  2.26318e+08
      58.9691  2.34044e+08
      58.8261  2.42031e+08
      58.6832  2.50289e+08
      58.5402  2.58827e+08
      58.3973  2.67654e+08
      58.2543   2.7678e+08
      58.1113  2.86214e+08
      57.9684  2.95968e+08
      57.8254  3.06051e+08
      57.6825  3.16476e+08
      57.5395  3.27253e+08
      57.3966  3.38395e+08
      57.2536  3.49913e+08
      57.1107   3.6182e+08
      56.9677  3.74129e+08
      56.8248  3.86854e+08
      56.6818  4.00009e+08
      56.5388  4.13607e+08
      56.3959  4.27664e+08
      56.2529  4.42196e+08
        56.11  4.57217e+08
       55.967  4.72745e+08
      55.8241  4.88796e+08
      55.6811  5.05388e+08
      55.5382  5.22539e+08
      55.3952  5.40268e+08
      55.2522  5.58593e+08
      55.1093  5.77536e+08
      54.9663  5.97115e+08
      54.8234  6.17354e+08
      54.6804  6.38273e+08
      54.5375  6.59895e+08
      54.3945  6.82244e+08
      54.2516  7.05345e+08
      54.1086  7.29221e+08
      53.9656  7.53899e+08
      53.8227  7.79406e+08
      53.6797   8.0577e+08
      53.5368  8.33018e+08
      53.3938   8.6118e+08
      53.2509  8.90286e+08
      53.1079  9.20369e+08
       52.965   9.5146e+08
       52.822  9.83593e+08
       52.679   1.0168e+09
      52.5361  1.05112e+09
      52.3931   1.0866e+09
      52.2502  1.12326e+09
      52.1072  1.16114e+09
      51.9643  1.20029e+09
      51.8213  1.24076e+09
      51.6784  1.28257e+09
      51.5354  1.32579e+09
      51.3924  1.37044e+09
      51.2495  1.41659e+09
      51.1065  1.46428e+09
      50.9636  1.51357e+09
      50.8206   1.5645e+09
      50.6777  1.61713e+09
      50.5347  1.67151e+09
      50.3918  1.72771e+09
      50.2488  1.78578e+09
      50.1058  1.84579e+09
      49.9629   1.9078e+09
      49.8199  1.97187e+09
       49.677  2.03808e+09
       49.534  2.10649e+09
      49.3911  2.17718e+09
      49.2481  2.25022e+09
      49.1052  2.32569e+09
      48.9622  2.40367e+09
      48.8193  2.48424e+09
      48.6763  2.56749e+09
      48.5333  2.65351e+09
      48.3904  2.74239e+09
      48.2474  2.83421e+09
      48.1045  2.92909e+09
      47.9615  3.02711e+09
      47.8186  3.12839e+09
      47.6756  3.23302e+09
      47.5327  3.34113e+09
      47.3897  3.45281e+09
      47.2467   3.5682e+09
      47.1038  3.68742e+09
      46.9608  3.81058e+09
      46.8179  3.93781e+09
      46.6749  4.06926e+09
       46.532  4.20506e+09
       46.389  4.34535e+09
      46.2461  4.49028e+09
      46.1031     4.64e+09
      45.9601  4.79467e+09
      45.8172  4.95445e+09
      45.6742   5.1195e+09
      45.5313  5.29001e+09
      45.3883  5.46614e+09
      45.2454  5.64809e+09
      45.1024  5.83604e+09
      44.9595  6.03018e+09
      44.8165  6.23073e+09
      44.6735  6.43788e+09
      44.5306  6.65186e+09
      44.3876  6.87289e+09
      44.2447   7.1012e+09
      44.1017  7.33702e+09
      43.9588   7.5806e+09
      43.8158  7.83219e+09
      43.6729  8.09205e+09
      43.5299  8.36046e+09
      43.3869  8.63769e+09
       43.244  8.92403e+09
       43.101  9.21977e+09
      42.9581  9.52522e+09
      42.8151  9.84069e+09
      42.6722  1.01665e+10
      42.5292   1.0503e+10
      42.3863  1.08506e+10
      42.2433  1.12095e+10
      42.1003  1.15802e+10
      41.9574  1.19631e+10
      41.8144  1.23584e+10
      41.6715  1.27668e+10
      41.5285  1.31884e+10
      41.3856  1.36239e+10
      41.2426  1.40737e+10
      41.0997  1.45381e+10
      40.9567  1.50177e+10
      40.8138   1.5513e+10
      40.6708  1.60244e+10
      40.5278  1.65526e+10
      40.3849  1.70979e+10
