Temperature = 1639.57K
THERMAL DISTRIBUTIONS:
  E, kcal/mol           W1
      143.816    0.0844887
      143.673    0.0877039
       143.53    0.0910411
      143.387     0.094505
      143.244    0.0981003
      143.101     0.101832
      142.958     0.105705
      142.815     0.109725
      142.672     0.113898
      142.529     0.118229
      142.386     0.122724
      142.243      0.12739
        142.1     0.132233
      141.958     0.137259
      141.815     0.142475
      141.672      0.14789
      141.529     0.153509
      141.386     0.159342
      141.243     0.165395
        141.1     0.171678
      140.957     0.178199
      140.814     0.184967
      140.671     0.191991
      140.528     0.199282
      140.385     0.206848
      140.242     0.214701
      140.099     0.222851
      139.956      0.23131
      139.813     0.240089
       139.67       0.2492
      139.527     0.258656
      139.384      0.26847
      139.241     0.278655
      139.098     0.289225
      138.955     0.300196
      138.813     0.311581
       138.67     0.323397
      138.527     0.335659
      138.384     0.348386
      138.241     0.361593
      138.098       0.3753
      137.955     0.389525
      137.812     0.404288
      137.669     0.419609
      137.526     0.435508
      137.383     0.452008
       137.24     0.469132
      137.097     0.486903
      136.954     0.505344
      136.811     0.524483
      136.668     0.544344
      136.525     0.564955
      136.382     0.586344
      136.239     0.608541
      136.096     0.631576
      135.953      0.65548
       135.81     0.680286
      135.667     0.706028
      135.525     0.732742
      135.382     0.760463
      135.239     0.789231
      135.096     0.819083
      134.953     0.850061
       134.81     0.882208
      134.667     0.915566
      134.524     0.950183
      134.381     0.986104
      134.238      1.02338
      134.095      1.06206
      133.952       1.1022
      133.809      1.14385
      133.666      1.18707
      133.523      1.23192
       133.38      1.27846
      133.237      1.32675
      133.094      1.37686
      132.951      1.42885
      132.808      1.48281
      132.665      1.53879
      132.522      1.59689
       132.38      1.65717
      132.237      1.71971
      132.094      1.78462
      131.951      1.85196
      131.808      1.92184
      131.665      1.99435
      131.522      2.06958
      131.379      2.14765
      131.236      2.22865
      131.093      2.31269
       130.95       2.3999
      130.807      2.49039
      130.664      2.58427
      130.521      2.68169
      130.378      2.78276
      130.235      2.88764
      130.092      2.99645
      129.949      3.10936
      129.806       3.2265
      129.663      3.34805
       129.52      3.47416
      129.377        3.605
      129.234      3.74076
      129.092      3.88162
      128.949      4.02776
      128.806      4.17939
      128.663       4.3367
       128.52      4.49993
      128.377      4.66927
      128.234      4.84497
      128.091      5.02727
      127.948       5.2164
      127.805      5.41262
      127.662       5.6162
      127.519      5.82741
      127.376      6.04655
      127.233      6.27389
       127.09      6.50976
      126.947      6.75447
      126.804      7.00835
      126.661      7.27175
      126.518      7.54501
      126.375      7.82851
      126.232      8.12262
      126.089      8.42775
      125.947      8.74431
      125.804      9.07272
      125.661      9.41343
      125.518      9.76689
      125.375      10.1336
      125.232       10.514
      125.089      10.9087
      124.946      11.3181
      124.803      11.7428
       124.66      12.1834
      124.517      12.6405
      124.374      13.1147
      124.231      13.6067
      124.088       14.117
      123.945      14.6464
      123.802      15.1956
      123.659      15.7653
      123.516      16.3563
      123.373      16.9694
       123.23      17.6054
      123.087      18.2652
      122.944      18.9496
      122.802      19.6596
      122.659       20.396
      122.516        21.16
      122.373      21.9525
       122.23      22.7746
      122.087      23.6274
      121.944       24.512
      121.801      25.4297
      121.658      26.3815
      121.515      27.3689
      121.372      28.3931
      121.229      29.4555
      121.086      30.5575
      120.943      31.7007
        120.8      32.8864
      120.657      34.1164
      120.514      35.3922
      120.371      36.7155
      120.228      38.0882
      120.085       39.512
      119.942      40.9889
      119.799      42.5207
      119.656      44.1097
      119.514      45.7578
      119.371      47.4673
      119.228      49.2405
      119.085      51.0796
      118.942      52.9873
      118.799      54.9659
      118.656      57.0181
      118.513      59.1468
       118.37      61.3546
      118.227      63.6446
      118.084      66.0197
      117.941      68.4832
      117.798      71.0383
      117.655      73.6884
      117.512       76.437
      117.369      79.2878
      117.226      82.2446
      117.083      85.3112
       116.94      88.4918
      116.797      91.7906
      116.654      95.2119
      116.511      98.7603
      116.369       102.44
      116.226      106.257
      116.083      110.216
       115.94      114.321
      115.797      118.579
      115.654      122.995
      115.511      127.575
      115.368      132.325
      115.225      137.251
      115.082       142.36
      114.939      147.658
      114.796      153.153
      114.653      158.851
       114.51      164.761
      114.367       170.89
      114.224      177.246
      114.081      183.837
      113.938      190.673
      113.795      197.762
      113.652      205.114
      113.509      212.738
      113.366      220.645
      113.223      228.844
      113.081      237.347
      112.938      246.165
      112.795      255.309
      112.652      264.791
      112.509      274.625
      112.366      284.822
      112.223      295.397
       112.08      306.363
      111.937      317.734
      111.794      329.526
      111.651      341.754
      111.508      354.435
      111.365      367.584
      111.222      381.219
      111.079      395.357
      110.936      410.019
      110.793      425.222
       110.65      440.987
      110.507      457.334
      110.364      474.285
      110.221      491.861
      110.078      510.087
      109.936      528.986
      109.793      548.582
       109.65      568.901
      109.507      589.971
      109.364      611.817
      109.221       634.47
      109.078      657.958
      108.935      682.313
      108.792      707.565
      108.649      733.749
      108.506      760.898
      108.363      789.048
       108.22      818.236
      108.077      848.499
      107.934      879.877
      107.791      912.411
      107.648      946.143
      107.505      981.118
      107.362      1017.38
      107.219      1054.98
      107.076      1093.96
      106.933      1134.38
      106.791      1176.28
      106.648      1219.73
      106.505      1264.77
      106.362      1311.48
      106.219       1359.9
      106.076       1410.1
      105.933      1462.15
       105.79      1516.11
      105.647      1572.05
      105.504      1630.05
      105.361      1690.18
      105.218      1752.53
      105.075      1817.16
      104.932      1884.17
      104.789      1953.64
      104.646      2025.66
      104.503      2100.32
       104.36      2177.73
      104.217      2257.97
      104.074      2341.16
      103.931      2427.41
      103.788      2516.82
      103.645      2609.51
      103.503       2705.6
       103.36      2805.22
      103.217      2908.48
      103.074      3015.54
      102.931      3126.52
      102.788      3241.56
      102.645      3360.83
      102.502      3484.46
      102.359      3612.63
      102.216      3745.49
      102.073      3883.21
       101.93      4025.98
      101.787      4173.98
      101.644      4327.39
      101.501      4486.42
      101.358      4651.28
      101.215      4822.16
      101.072       4999.3
      100.929      5182.92
      100.786      5373.25
      100.643      5570.55
        100.5      5775.06
      100.358      5987.05
      100.215      6206.79
      100.072      6434.56
      99.9286      6670.65
      99.7857      6915.37
      99.6427      7169.03
      99.4998      7431.96
      99.3568      7704.49
      99.2139      7986.97
      99.0709      8279.77
       98.928      8583.25
       98.785      8897.82
       98.642      9223.86
      98.4991       9561.8
      98.3561      9912.07
      98.2132      10275.1
      98.0702      10651.4
      97.9273      11041.4
      97.7843      11445.6
      97.6414      11864.6
      97.4984      12298.8
      97.3555      12748.9
      97.2125      13215.4
      97.0695      13698.8
      96.9266      14199.9
      96.7836      14719.2
      96.6407      15257.5
      96.4977      15815.3
      96.3548      16393.4
      96.2118      16992.6
      96.0689      17613.6
      95.9259      18257.1
      95.7829      18924.1
        95.64      19615.4
       95.497      20331.8
      95.3541      21074.2
      95.2111      21843.7
      95.0682      22641.1
      94.9252      23467.5
      94.7823      24323.9
      94.6393      25211.4
      94.4963      26131.2
      94.3534      27084.4
      94.2104      28072.2
      94.0675      29095.9
      93.9245      30156.7
      93.7816      31256.1
      93.6386      32395.3
      93.4957      33575.9
      93.3527      34799.4
      93.2097      36067.2
      93.0668      37380.9
      92.9238      38742.4
      92.7809      40153.2
      92.6379      41615.1
       92.495        43130
       92.352      44699.8
      92.2091      46326.5
      92.0661      48012.2
      91.9231      49758.8
      91.7802      51568.8
      91.6372      53444.3
      91.4943      55387.7
      91.3513      57401.4
      91.2084        59488
      91.0654      61650.1
      90.9225      63890.4
      90.7795      66211.8
      90.6365      68617.1
      90.4936      71109.5
      90.3506      73691.9
      90.2077      76367.6
      90.0647      79140.1
      89.9218      82012.8
      89.7788      84989.2
      89.6359      88073.2
      89.4929      91268.6
        89.35      94579.4
       89.207      98009.6
       89.064       101564
      88.9211       105246
      88.7781       109061
      88.6352       113014
      88.4922       117110
      88.3493       121353
      88.2063       125750
      88.0634       130304
      87.9204       135023
      87.7774       139912
      87.6345       144978
      87.4915       150226
      87.3486       155662
      87.2056       161295
      87.0627       167131
      86.9197       173176
      86.7768       179439
      86.6338       185928
      86.4908       192650
      86.3479       199614
      86.2049       206829
       86.062       214303
       85.919       222046
      85.7761       230067
      85.6331       238377
      85.4902       246985
      85.3472       255903
      85.2042       265141
      85.0613       274710
      84.9183       284624
      84.7754       294894
      84.6324       305532
      84.4895       316552
      84.3465       327968
      84.2036       339793
      84.0606       352042
      83.9176       364731
      83.7747       377875
      83.6317       391491
      83.4888       405594
      83.3458       420203
      83.2029       435336
      83.0599       451011
       82.917       467247
       82.774       484065
       82.631       501485
      82.4881       519529
      82.3451       538219
      82.2022       557577
      82.0592       577629
      81.9163       598398
      81.7733       619910
      81.6304       642191
      81.4874       665269
      81.3445       689172
      81.2015       713929
      81.0585       739572
      80.9156       766130
      80.7726       793637
      80.6297       822127
      80.4867       851634
      80.3438       882195
      80.2008       913847
      80.0579       946628
      79.9149       980579
      79.7719  1.01574e+06
       79.629  1.05216e+06
       79.486  1.08987e+06
      79.3431  1.12893e+06
      79.2001  1.16939e+06
      79.0572  1.21128e+06
      78.9142  1.25467e+06
      78.7713   1.2996e+06
      78.6283  1.34614e+06
      78.4853  1.39433e+06
      78.3424  1.44424e+06
      78.1994  1.49592e+06
      78.0565  1.54944e+06
      77.9135  1.60487e+06
      77.7706  1.66227e+06
      77.6276  1.72172e+06
      77.4847  1.78327e+06
      77.3417  1.84702e+06
      77.1987  1.91303e+06
      77.0558  1.98139e+06
      76.9128  2.05218e+06
      76.7699  2.12548e+06
      76.6269  2.20139e+06
       76.484  2.27999e+06
       76.341  2.36139e+06
      76.1981  2.44567e+06
      76.0551  2.53295e+06
      75.9121  2.62333e+06
      75.7692  2.71691e+06
      75.6262  2.81381e+06
      75.4833  2.91414e+06
      75.3403  3.01804e+06
      75.1974  3.12562e+06
      75.0544  3.23701e+06
      74.9115  3.35235e+06
      74.7685  3.47178e+06
      74.6256  3.59544e+06
      74.4826  3.72347e+06
      74.3396  3.85605e+06
      74.1967  3.99331e+06
      74.0537  4.13543e+06
      73.9108  4.28259e+06
      73.7678  4.43495e+06
      73.6249   4.5927e+06
      73.4819  4.75603e+06
       73.339  4.92513e+06
       73.196  5.10021e+06
       73.053  5.28148e+06
      72.9101  5.46916e+06
      72.7671  5.66347e+06
      72.6242  5.86464e+06
      72.4812  6.07291e+06
      72.3383  6.28854e+06
      72.1953  6.51178e+06
      72.0524   6.7429e+06
      71.9094  6.98218e+06
      71.7664  7.22989e+06
      71.6235  7.48635e+06
      71.4805  7.75185e+06
      71.3376   8.0267e+06
      71.1946  8.31125e+06
      71.0517  8.60583e+06
      70.9087  8.91078e+06
      70.7658  9.22648e+06
      70.6228  9.55329e+06
      70.4798  9.89162e+06
      70.3369  1.02418e+07
      70.1939  1.06044e+07
       70.051  1.09797e+07
       69.908  1.13683e+07
      69.7651  1.17704e+07
      69.6221  1.21868e+07
      69.4792  1.26177e+07
      69.3362  1.30639e+07
      69.1932  1.35257e+07
      69.0503  1.40037e+07
      68.9073  1.44985e+07
      68.7644  1.50107e+07
      68.6214  1.55409e+07
      68.4785  1.60897e+07
      68.3355  1.66577e+07
      68.1926  1.72457e+07
      68.0496  1.78543e+07
      67.9066  1.84843e+07
      67.7637  1.91363e+07
      67.6207  1.98112e+07
      67.4778  2.05098e+07
      67.3348  2.12328e+07
      67.1919  2.19812e+07
      67.0489  2.27558e+07
       66.906  2.35575e+07
       66.763  2.43873e+07
      66.6201  2.52461e+07
      66.4771   2.6135e+07
      66.3341   2.7055e+07
      66.1912  2.80071e+07
      66.0482  2.89926e+07
      65.9053  3.00125e+07
      65.7623  3.10681e+07
      65.6194  3.21606e+07
      65.4764  3.32912e+07
      65.3335  3.44614e+07
      65.1905  3.56724e+07
      65.0475  3.69256e+07
      64.9046  3.82227e+07
      64.7616   3.9565e+07
      64.6187  4.09541e+07
      64.4757  4.23917e+07
      64.3328  4.38794e+07
      64.1898  4.54191e+07
      64.0469  4.70123e+07
      63.9039  4.86611e+07
      63.7609  5.03674e+07
       63.618  5.21331e+07
       63.475  5.39603e+07
      63.3321  5.58511e+07
      63.1891  5.78078e+07
      63.0462  5.98325e+07
      62.9032  6.19277e+07
      62.7603  6.40958e+07
      62.6173  6.63392e+07
      62.4743  6.86607e+07
      62.3314  7.10629e+07
      62.1884  7.35485e+07
      62.0455  7.61206e+07
      61.9025  7.87819e+07
      61.7596  8.15357e+07
      61.6166  8.43852e+07
      61.4737  8.73335e+07
      61.3307  9.03841e+07
      61.1877  9.35406e+07
      61.0448  9.68066e+07
      60.9018  1.00186e+08
      60.7589  1.03682e+08
      60.6159    1.073e+08
       60.473  1.11043e+08
        60.33  1.14915e+08
      60.1871  1.18922e+08
      60.0441  1.23068e+08
      59.9011  1.27357e+08
      59.7582  1.31794e+08
      59.6152  1.36385e+08
      59.4723  1.41135e+08
      59.3293  1.46049e+08
      59.1864  1.51133e+08
      59.0434  1.56393e+08
      58.9005  1.61834e+08
      58.7575  1.67464e+08
      58.6146  1.73288e+08
      58.4716  1.79313e+08
      58.3286  1.85546e+08
      58.1857  1.91994e+08
      58.0427  1.98665e+08
      57.8998  2.05566e+08
      57.7568  2.12705e+08
      57.6139   2.2009e+08
      57.4709   2.2773e+08
       57.328  2.35633e+08
       57.185  2.43808e+08
       57.042  2.52265e+08
      56.8991  2.61013e+08
      56.7561  2.70062e+08
      56.6132  2.79423e+08
      56.4702  2.89106e+08
      56.3273  2.99122e+08
      56.1843  3.09483e+08
      56.0414  3.20199e+08
      55.8984  3.31285e+08
      55.7554  3.42751e+08
      55.6125  3.54611e+08
      55.4695  3.66878e+08
      55.3266  3.79567e+08
      55.1836  3.92691e+08
      55.0407  4.06266e+08
      54.8977  4.20306e+08
      54.7548  4.34828e+08
      54.6118  4.49849e+08
      54.4688  4.65384e+08
      54.3259  4.81451e+08
      54.1829   4.9807e+08
        54.04  5.15257e+08
       53.897  5.33033e+08
      53.7541  5.51418e+08
      53.6111  5.70433e+08
      53.4682  5.90097e+08
      53.3252  6.10435e+08
      53.1822  6.31468e+08
      53.0393  6.53221e+08
      52.8963  6.75717e+08
      52.7534  6.98982e+08
      52.6104  7.23042e+08
      52.4675  7.47923e+08
      52.3245  7.73654e+08
      52.1816  8.00264e+08
      52.0386  8.27782e+08
      51.8957  8.56239e+08
      51.7527  8.85666e+08
      51.6097  9.16097e+08
      51.4668  9.47565e+08
      51.3238  9.80106e+08
      51.1809  1.01376e+09
      51.0379  1.04855e+09
       50.895  1.08453e+09
       50.752  1.12174e+09
      50.6091  1.16021e+09
      50.4661  1.19999e+09
      50.3231  1.24112e+09
      50.1802  1.28366e+09
      50.0372  1.32763e+09
      49.8943  1.37311e+09
      49.7513  1.42013e+09
      49.6084  1.46874e+09
      49.4654  1.51901e+09
      49.3225  1.57098e+09
      49.1795  1.62472e+09
      49.0365  1.68028e+09
      48.8936  1.73772e+09
      48.7506  1.79711e+09
      48.6077  1.85852e+09
      48.4647  1.92201e+09
      48.3218  1.98764e+09
      48.1788   2.0555e+09
      48.0359  2.12566e+09
      47.8929  2.19819e+09
      47.7499  2.27318e+09
       47.607  2.35071e+09
       47.464  2.43085e+09
      47.3211  2.51371e+09
      47.1781  2.59937e+09
      47.0352  2.68792e+09
      46.8922  2.77946e+09
      46.7493  2.87409e+09
      46.6063  2.97192e+09
      46.4633  3.07305e+09
      46.3204   3.1776e+09
      46.1774  3.28567e+09
      46.0345  3.39738e+09
      45.8915  3.51286e+09
      45.7486  3.63223e+09
      45.6056  3.75562e+09
      45.4627  3.88317e+09
      45.3197  4.01501e+09
      45.1767  4.15129e+09
      45.0338  4.29216e+09
      44.8908  4.43777e+09
      44.7479  4.58827e+09
      44.6049  4.74383e+09
       44.462  4.90462e+09
       44.319  5.07081e+09
      44.1761  5.24258e+09
      44.0331  5.42012e+09
      43.8902  5.60362e+09
      43.7472  5.79328e+09
      43.6042   5.9893e+09
      43.4613   6.1919e+09
      43.3183  6.40128e+09
      43.1754  6.61769e+09
      43.0324  6.84134e+09
      42.8895  7.07248e+09
      42.7465  7.31137e+09
      42.6036  7.55825e+09
      42.4606  7.81339e+09
      42.3176  8.07707e+09
      42.1747  8.34956e+09
      42.0317  8.63116e+09
      41.8888  8.92218e+09
      41.7458  9.22291e+09
      41.6029  9.53369e+09
      41.4599  9.85485e+09
       41.317  1.01867e+10
       41.174  1.05297e+10
       41.031  1.08841e+10
      40.8881  1.12503e+10
      40.7451  1.16287e+10
      40.6022  1.20197e+10
      40.4592  1.24237e+10
      40.3163  1.28412e+10
      40.1733  1.32726e+10
      40.0304  1.37184e+10
      39.8874   1.4179e+10
      39.7444  1.46549e+10
      39.6015  1.51466e+10
      39.4585  1.56547e+10
      39.3156  1.61796e+10
      39.1726   1.6722e+10
      39.0297  1.72824e+10
      38.8867  1.78614e+10
      38.7438  1.84596e+10
      38.6008  1.90776e+10
      38.4578  1.97162e+10
