Temperature = 1629.46K
THERMAL DISTRIBUTIONS:
  E, kcal/mol           W1
      143.013    0.0753361
       142.87    0.0782227
      142.727    0.0812196
      142.584     0.084331
      142.441    0.0875613
      142.298    0.0909151
      142.155    0.0943969
      142.012    0.0980117
      141.869     0.101765
      141.726     0.105661
      141.583     0.109706
       141.44     0.113905
      141.297     0.118265
      141.154     0.122791
      141.011      0.12749
      140.868     0.132368
      140.725     0.137433
      140.582      0.14269
      140.439     0.148149
      140.296     0.153815
      140.153     0.159698
       140.01     0.165805
      139.868     0.172145
      139.725     0.178726
      139.582     0.185559
      139.439     0.192652
      139.296     0.200016
      139.153      0.20766
       139.01     0.215595
      138.867     0.223833
      138.724     0.232385
      138.581     0.241263
      138.438     0.250479
      138.295     0.260046
      138.152     0.269977
      138.009     0.280287
      137.866     0.290989
      137.723     0.302099
       137.58     0.313632
      137.437     0.325604
      137.294     0.338031
      137.151     0.350932
      137.008     0.364323
      136.865     0.378224
      136.722     0.392654
       136.58     0.407634
      136.437     0.423182
      136.294     0.439323
      136.151     0.456077
      136.008     0.473468
      135.865     0.491521
      135.722      0.51026
      135.579     0.529712
      135.436     0.549902
      135.293     0.570861
       135.15     0.592616
      135.007     0.615197
      134.864     0.638637
      134.721     0.662967
      134.578     0.688221
      134.435     0.714435
      134.292     0.741644
      134.149     0.769886
      134.006     0.799201
      133.863     0.829629
       133.72     0.861212
      133.577     0.893994
      133.435     0.928021
      133.292     0.963338
      133.149     0.999996
      133.006      1.03804
      132.863      1.07754
       132.72      1.11853
      132.577      1.16107
      132.434      1.20523
      132.291      1.25106
      132.148      1.29864
      132.005      1.34801
      131.862      1.39926
      131.719      1.45245
      131.576      1.50765
      131.433      1.56495
       131.29      1.62442
      131.147      1.68614
      131.004       1.7502
      130.861      1.81668
      130.718      1.88569
      130.575      1.95731
      130.432      2.03164
       130.29      2.10878
      130.147      2.18885
      130.004      2.27194
      129.861      2.35818
      129.718      2.44769
      129.575      2.54058
      129.432      2.63699
      129.289      2.73704
      129.146      2.84088
      129.003      2.94864
       128.86      3.06049
      128.717      3.17656
      128.574      3.29702
      128.431      3.42203
      128.288      3.55177
      128.145      3.68642
      128.002      3.82615
      127.859      3.97116
      127.716      4.12166
      127.573      4.27784
       127.43      4.43992
      127.287      4.60812
      127.144      4.78267
      127.002      4.96382
      126.859       5.1518
      126.716      5.34689
      126.573      5.54933
       126.43      5.75942
      126.287      5.97744
      126.144      6.20369
      126.001      6.43847
      125.858      6.68211
      125.715      6.93494
      125.572      7.19731
      125.429      7.46957
      125.286      7.75211
      125.143      8.04529
          125      8.34953
      124.857      8.66524
      124.714      8.99284
      124.571       9.3328
      124.428      9.68556
      124.285      10.0516
      124.142      10.4315
      123.999      10.8256
      123.857      11.2346
      123.714       11.659
      123.571      12.0994
      123.428      12.5564
      123.285      13.0306
      123.142      13.5226
      122.999      14.0331
      122.856      14.5629
      122.713      15.1126
       122.57       15.683
      122.427      16.2748
      122.284      16.8889
      122.141      17.5261
      121.998      18.1873
      121.855      18.8733
      121.712      19.5851
      121.569      20.3237
      121.426        21.09
      121.283      21.8851
       121.14      22.7102
      120.997      23.5662
      120.854      24.4544
      120.711      25.3759
      120.569      26.3321
      120.426      27.3241
      120.283      28.3535
       120.14      29.4214
      119.997      30.5295
      119.854      31.6792
      119.711       32.872
      119.568      34.1096
      119.425      35.3936
      119.282      36.7258
      119.139       38.108
      118.996       39.542
      118.853      41.0298
       118.71      42.5734
      118.567      44.1748
      118.424      45.8364
      118.281      47.5602
      118.138      49.3486
      117.995       51.204
      117.852       53.129
      117.709      55.1261
      117.566       57.198
      117.424      59.3475
      117.281      61.5775
      117.138      63.8911
      116.995      66.2912
      116.852      68.7812
      116.709      71.3645
      116.566      74.0444
      116.423      76.8246
       116.28      79.7089
      116.137      82.7011
      115.994      85.8052
      115.851      89.0254
      115.708      92.3661
      115.565      95.8317
      115.422      99.4269
      115.279      103.156
      115.136      107.025
      114.993      111.039
       114.85      115.203
      114.707      119.522
      114.564      124.003
      114.421       128.65
      114.279      133.472
      114.136      138.474
      113.993      143.662
       113.85      149.044
      113.707      154.627
      113.564      160.419
      113.421      166.426
      113.278      172.658
      113.135      179.123
      112.992      185.828
      112.849      192.784
      112.706      199.999
      112.563      207.483
       112.42      215.246
      112.277      223.299
      112.134      231.652
      111.991      240.316
      111.848      249.303
      111.705      258.625
      111.562      268.295
      111.419      278.324
      111.276      288.728
      111.133      299.518
      110.991      310.711
      110.848       322.32
      110.705      334.361
      110.562      346.851
      110.419      359.805
      110.276      373.242
      110.133      387.178
       109.99      401.633
      109.847      416.626
      109.704      432.176
      109.561      448.305
      109.418      465.033
      109.275      482.383
      109.132      500.378
      108.989      519.042
      108.846        538.4
      108.703      558.477
       108.56      579.299
      108.417      600.895
      108.274      623.294
      108.131      646.524
      107.988      670.617
      107.846      695.604
      107.703      721.519
       107.56      748.395
      107.417      776.269
      107.274      805.178
      107.131      835.158
      106.988      866.251
      106.845      898.498
      106.702       931.94
      106.559      966.622
      106.416      1002.59
      106.273      1039.89
       106.13      1078.57
      105.987      1118.69
      105.844       1160.3
      105.701      1203.44
      105.558      1248.18
      105.415      1294.58
      105.272       1342.7
      105.129       1392.6
      104.986      1444.35
      104.843      1498.01
        104.7      1553.66
      104.558      1611.37
      104.415      1671.22
      104.272      1733.27
      104.129      1797.63
      103.986      1864.36
      103.843      1933.56
        103.7      2005.32
      103.557      2079.74
      103.414       2156.9
      103.271      2236.91
      103.128      2319.89
      102.985      2405.92
      102.842      2495.14
      102.699      2587.65
      102.556      2683.58
      102.413      2783.04
       102.27      2886.19
      102.127      2993.14
      101.984      3104.03
      101.841      3219.02
      101.698      3338.25
      101.555      3461.88
      101.413      3590.07
       101.27      3722.99
      101.127      3860.81
      100.984      4003.71
      100.841      4151.88
      100.698      4305.51
      100.555       4464.8
      100.412      4629.96
      100.269      4801.21
      100.126      4978.77
       99.983      5162.86
        99.84      5353.73
      99.6971      5551.64
      99.5541      5756.82
      99.4111      5969.56
      99.2682      6190.13
      99.1252      6418.82
      98.9823      6655.92
      98.8393      6901.74
      98.6964      7156.61
      98.5534      7420.84
      98.4105       7694.8
      98.2675      7978.82
      98.1246      8273.28
      97.9816      8578.57
      97.8386      8895.08
      97.6957      9223.21
      97.5527       9563.4
      97.4098      9916.08
      97.2668      10281.7
      97.1239      10660.8
      96.9809      11053.8
       96.838      11461.2
       96.695      11883.5
       96.552      12321.4
      96.4091      12775.3
      96.2661      13245.8
      96.1232      13733.7
      95.9802      14239.4
      95.8373      14763.7
      95.6943      15307.1
      95.5514      15870.5
      95.4084      16454.6
      95.2654        17060
      95.1225      17687.7
      94.9795      18338.3
      94.8366      19012.8
      94.6936      19711.9
      94.5507      20436.7
      94.4077      21187.9
      94.2648      21966.7
      94.1218        22774
      93.9788      23610.8
      93.8359      24478.3
      93.6929      25377.4
        93.55      26309.5
       93.407      27275.6
      93.2641      28277.1
      93.1211      29315.2
      92.9782      30391.2
      92.8352      31506.5
      92.6922      32662.6
      92.5493      33860.9
      92.4063        35103
      92.2634      36390.4
      92.1204      37724.9
      91.9775        39108
      91.8345      40541.7
      91.6916      42027.7
      91.5486      43567.9
      91.4056      45164.2
      91.2627      46818.9
      91.1197      48533.8
      90.9768      50311.3
      90.8338      52153.6
      90.6909      54063.1
      90.5479      56042.2
       90.405      58093.3
       90.262      60219.3
      90.1191      62422.6
      89.9761      64706.2
      89.8331        67073
      89.6902      69525.9
      89.5472      72068.2
      89.4043      74702.9
      89.2613      77433.6
      89.1184      80263.6
      88.9754      83196.6
      88.8325      86236.2
      88.6895      89386.4
      88.5465      92651.1
      88.4036      96034.5
      88.2606      99540.9
      88.1177       103175
      87.9747       106941
      87.8318       110843
      87.6888       114888
      87.5459       119079
      87.4029       123422
      87.2599       127924
       87.117       132588
       86.974       137422
      86.8311       142431
      86.6881       147622
      86.5452       153002
      86.4022       158576
      86.2593       164352
      86.1163       170338
      85.9733       176541
      85.8304       182969
      85.6874       189629
      85.5445       196531
      85.4015       203683
      85.2586       211094
      85.1156       218773
      84.9727       226730
      84.8297       234975
      84.6867       243519
      84.5438       252372
      84.4008       261545
      84.2579       271049
      84.1149       280898
       83.972       291102
       83.829       301676
      83.6861       312632
      83.5431       323983
      83.4001       335745
      83.2572       347931
      83.1142       360558
      82.9713       373641
      82.8283       387196
      82.6854       401240
      82.5424       415791
      82.3995       430867
      82.2565       446487
      82.1136       462671
      81.9706       479438
      81.8276       496810
      81.6847       514808
      81.5417       533455
      81.3988       552774
      81.2558       572789
      81.1129       593525
      80.9699       615007
       80.827       637264
       80.684       660321
       80.541       684209
      80.3981       708957
      80.2551       734595
      80.1122       761155
      79.9692       788671
      79.8263       817176
      79.6833       846706
      79.5404       877298
      79.3974       908989
      79.2544       941820
      79.1115       975829
      78.9685  1.01106e+06
      78.8256  1.04756e+06
      78.6826  1.08537e+06
      78.5397  1.12453e+06
      78.3967   1.1651e+06
      78.2538  1.20713e+06
      78.1108  1.25066e+06
      77.9678  1.29576e+06
      77.8249  1.34247e+06
      77.6819  1.39086e+06
       77.539  1.44099e+06
       77.396  1.49291e+06
      77.2531  1.54669e+06
      77.1101   1.6024e+06
      76.9672   1.6601e+06
      76.8242  1.71987e+06
      76.6812  1.78178e+06
      76.5383  1.84591e+06
      76.3953  1.91234e+06
      76.2524  1.98114e+06
      76.1094   2.0524e+06
      75.9665  2.12621e+06
      75.8235  2.20267e+06
      75.6806  2.28185e+06
      75.5376  2.36387e+06
      75.3946  2.44882e+06
      75.2517  2.53681e+06
      75.1087  2.62794e+06
      74.9658  2.72232e+06
      74.8228  2.82008e+06
      74.6799  2.92133e+06
      74.5369  3.02619e+06
       74.394   3.1348e+06
       74.251  3.24728e+06
      74.1081  3.36378e+06
      73.9651  3.48443e+06
      73.8221  3.60939e+06
      73.6792   3.7388e+06
      73.5362  3.87283e+06
      73.3933  4.01163e+06
      73.2503  4.15538e+06
      73.1074  4.30425e+06
      72.9644  4.45843e+06
      72.8215   4.6181e+06
      72.6785  4.78345e+06
      72.5355  4.95469e+06
      72.3926  5.13203e+06
      72.2496  5.31567e+06
      72.1067  5.50585e+06
      71.9637   5.7028e+06
      71.8208  5.90675e+06
      71.6778  6.11795e+06
      71.5349  6.33666e+06
      71.3919  6.56315e+06
      71.2489  6.79768e+06
       71.106  7.04055e+06
       70.963  7.29204e+06
      70.8201  7.55246e+06
      70.6771  7.82213e+06
      70.5342  8.10137e+06
      70.3912  8.39053e+06
      70.2483  8.68994e+06
      70.1053  8.99997e+06
      69.9623  9.32101e+06
      69.8194  9.65342e+06
      69.6764  9.99762e+06
      69.5335   1.0354e+07
      69.3905  1.07231e+07
      69.2476  1.11052e+07
      69.1046  1.15008e+07
      68.9617  1.19104e+07
      68.8187  1.23346e+07
      68.6757  1.27738e+07
      68.5328  1.32285e+07
      68.3898  1.36993e+07
      68.2469  1.41868e+07
      68.1039  1.46915e+07
       67.961   1.5214e+07
       67.818   1.5755e+07
      67.6751  1.63152e+07
      67.5321  1.68951e+07
      67.3892  1.74955e+07
      67.2462  1.81172e+07
      67.1032  1.87607e+07
      66.9603   1.9427e+07
      66.8173  2.01169e+07
      66.6744   2.0831e+07
      66.5314  2.15704e+07
      66.3885  2.23359e+07
      66.2455  2.31283e+07
      66.1026  2.39487e+07
      65.9596   2.4798e+07
      65.8166  2.56772e+07
      65.6737  2.65875e+07
      65.5307  2.75297e+07
      65.3878  2.85052e+07
      65.2448   2.9515e+07
      65.1019  3.05604e+07
      64.9589  3.16425e+07
       64.816  3.27628e+07
       64.673  3.39224e+07
        64.53  3.51229e+07
      64.3871  3.63655e+07
      64.2441  3.76518e+07
      64.1012  3.89834e+07
      63.9582  4.03617e+07
      63.8153  4.17884e+07
      63.6723  4.32653e+07
      63.5294   4.4794e+07
      63.3864  4.63764e+07
      63.2434  4.80143e+07
      63.1005  4.97097e+07
      62.9575  5.14646e+07
      62.8146   5.3281e+07
      62.6716  5.51611e+07
      62.5287  5.71071e+07
      62.3857  5.91214e+07
      62.2428  6.12062e+07
      62.0998   6.3364e+07
      61.9568  6.55974e+07
      61.8139  6.79091e+07
      61.6709  7.03016e+07
       61.528  7.27779e+07
       61.385  7.53408e+07
      61.2421  7.79934e+07
      61.0991  8.07388e+07
      60.9562  8.35802e+07
      60.8132  8.65208e+07
      60.6702  8.95643e+07
      60.5273  9.27141e+07
      60.3843  9.59739e+07
      60.2414  9.93476e+07
      60.0984  1.02839e+08
      59.9555  1.06452e+08
      59.8125  1.10192e+08
      59.6696  1.14062e+08
      59.5266  1.18067e+08
      59.3837  1.22211e+08
      59.2407    1.265e+08
      59.0977  1.30939e+08
      58.9548  1.35532e+08
      58.8118  1.40285e+08
      58.6689  1.45204e+08
      58.5259  1.50294e+08
       58.383  1.55561e+08
        58.24  1.61012e+08
      58.0971  1.66652e+08
      57.9541  1.72488e+08
      57.8111  1.78528e+08
      57.6682  1.84777e+08
      57.5252  1.91244e+08
      57.3823  1.97935e+08
      57.2393  2.04859e+08
      57.0964  2.12023e+08
      56.9534  2.19436e+08
      56.8105  2.27106e+08
      56.6675  2.35043e+08
      56.5245  2.43255e+08
      56.3816  2.51752e+08
      56.2386  2.60543e+08
      56.0957   2.6964e+08
      55.9527  2.79051e+08
      55.8098  2.88789e+08
      55.6668  2.98864e+08
      55.5239  3.09288e+08
      55.3809  3.20073e+08
      55.2379  3.31232e+08
       55.095  3.42776e+08
       54.952   3.5472e+08
      54.8091  3.67077e+08
      54.6661  3.79862e+08
      54.5232  3.93089e+08
      54.3802  4.06772e+08
      54.2373  4.20929e+08
      54.0943  4.35574e+08
      53.9513  4.50726e+08
      53.8084    4.664e+08
      53.6654  4.82616e+08
      53.5225  4.99391e+08
      53.3795  5.16745e+08
      53.2366  5.34697e+08
      53.0936  5.53268e+08
      52.9507   5.7248e+08
      52.8077  5.92354e+08
      52.6647  6.12912e+08
      52.5218  6.34178e+08
      52.3788  6.56177e+08
      52.2359  6.78933e+08
      52.0929  7.02473e+08
        51.95  7.26822e+08
       51.807  7.52009e+08
      51.6641  7.78061e+08
      51.5211   8.0501e+08
      51.3782  8.32885e+08
      51.2352  8.61717e+08
      51.0922   8.9154e+08
      50.9493  9.22387e+08
      50.8063  9.54293e+08
      50.6634  9.87294e+08
      50.5204  1.02143e+09
      50.3775  1.05673e+09
      50.2345  1.09325e+09
      50.0916  1.13101e+09
      49.9486  1.17008e+09
      49.8056  1.21048e+09
      49.6627  1.25226e+09
      49.5197  1.29547e+09
      49.3768  1.34017e+09
      49.2338  1.38639e+09
      49.0909   1.4342e+09
      48.9479  1.48364e+09
       48.805  1.53477e+09
       48.662  1.58765e+09
       48.519  1.64233e+09
      48.3761  1.69889e+09
      48.2331  1.75737e+09
      48.0902  1.81786e+09
      47.9472  1.88041e+09
      47.8043  1.94509e+09
      47.6613  2.01198e+09
      47.5184  2.08115e+09
      47.3754  2.15268e+09
      47.2324  2.22665e+09
      47.0895  2.30314e+09
      46.9465  2.38224e+09
      46.8036  2.46402e+09
      46.6606   2.5486e+09
      46.5177  2.63605e+09
      46.3747  2.72648e+09
      46.2318  2.81998e+09
      46.0888  2.91667e+09
      45.9458  3.01664e+09
      45.8029  3.12001e+09
      45.6599  3.22689e+09
       45.517   3.3374e+09
       45.374  3.45167e+09
      45.2311  3.56981e+09
      45.0881  3.69196e+09
      44.9452  3.81826e+09
      44.8022  3.94884e+09
      44.6593  4.08385e+09
      44.5163  4.22344e+09
      44.3733  4.36775e+09
      44.2304  4.51695e+09
      44.0874  4.67121e+09
      43.9445  4.83069e+09
      43.8015  4.99557e+09
      43.6586  5.16602e+09
      43.5156  5.34224e+09
      43.3727  5.52442e+09
      43.2297  5.71275e+09
      43.0867  5.90745e+09
      42.9438  6.10873e+09
      42.8008  6.31681e+09
      42.6579  6.53191e+09
      42.5149  6.75427e+09
       42.372  6.98413e+09
       42.229  7.22174e+09
      42.0861  7.46737e+09
      41.9431  7.72127e+09
      41.8001  7.98374e+09
      41.6572  8.25504e+09
      41.5142  8.53548e+09
      41.3713  8.82536e+09
      41.2283  9.12499e+09
      41.0854  9.43471e+09
      40.9424  9.75484e+09
      40.7995  1.00857e+10
      40.6565  1.04278e+10
      40.5135  1.07813e+10
      40.3706  1.11466e+10
      40.2276  1.15243e+10
      40.0847  1.19146e+10
      39.9417  1.23181e+10
      39.7988   1.2735e+10
      39.6558   1.3166e+10
      39.5129  1.36113e+10
      39.3699  1.40717e+10
      39.2269  1.45474e+10
       39.084  1.50391e+10
       38.941  1.55472e+10
      38.7981  1.60723e+10
      38.6551   1.6615e+10
      38.5122  1.71759e+10
      38.3692  1.77555e+10
      38.2263  1.83545e+10
      38.0833  1.89735e+10
      37.9403  1.96131e+10
      37.7974  2.02741e+10
      37.6544  2.09572e+10
