Temperature = 1657.04K
THERMAL DISTRIBUTIONS:
  E, kcal/mol           W1
      145.203    0.0976275
       145.06     0.101299
      144.917     0.105109
      144.774     0.109061
      144.631     0.113162
      144.488     0.117416
      144.345      0.12183
      144.202      0.12641
      144.059     0.131161
      143.916      0.13609
      143.773     0.141204
       143.63     0.146509
      143.487     0.152014
      143.344     0.157724
      143.201     0.163649
      143.058     0.169795
      142.915     0.176172
      142.772     0.182787
      142.629      0.18965
      142.486      0.19677
      142.343     0.204157
      142.201      0.21182
      142.058     0.219771
      141.915     0.228018
      141.772     0.236575
      141.629     0.245451
      141.486      0.25466
      141.343     0.264213
        141.2     0.274124
      141.057     0.284405
      140.914     0.295071
      140.771     0.306136
      140.628     0.317614
      140.485     0.329522
      140.342     0.341875
      140.199     0.354689
      140.056     0.367983
      139.913     0.381773
       139.77     0.396079
      139.627      0.41092
      139.484     0.426314
      139.341     0.442284
      139.198     0.458851
      139.056     0.476036
      138.913     0.493863
       138.77     0.512356
      138.627     0.531539
      138.484     0.551439
      138.341     0.572081
      138.198     0.593494
      138.055     0.615706
      137.912     0.638747
      137.769     0.662647
      137.626      0.68744
      137.483     0.713157
       137.34     0.739834
      137.197     0.767505
      137.054     0.796209
      136.911     0.825983
      136.768     0.856867
      136.625     0.888903
      136.482     0.922133
      136.339     0.956601
      136.196     0.992354
      136.053      1.02944
      135.911      1.06791
      135.768      1.10781
      135.625      1.14919
      135.482      1.19212
      135.339      1.23665
      135.196      1.28284
      135.053      1.33074
       134.91      1.38043
      134.767      1.43197
      134.624      1.48543
      134.481      1.54088
      134.338      1.59839
      134.195      1.65804
      134.052      1.71991
      133.909      1.78408
      133.766      1.85064
      133.623      1.91968
       133.48      1.99128
      133.337      2.06555
      133.194      2.14258
      133.051      2.22247
      132.908      2.30533
      132.765      2.39127
      132.623      2.48041
       132.48      2.57286
      132.337      2.66874
      132.194      2.76819
      132.051      2.87133
      131.908       2.9783
      131.765      3.08925
      131.622      3.20431
      131.479      3.32365
      131.336      3.44742
      131.193      3.57578
       131.05      3.70891
      130.907      3.84698
      130.764      3.99018
      130.621      4.13869
      130.478      4.29271
      130.335      4.45244
      130.192       4.6181
      130.049       4.7899
      129.906      4.96807
      129.763      5.15286
       129.62      5.34449
      129.478      5.54323
      129.335      5.74933
      129.192      5.96308
      129.049      6.18474
      128.906      6.41462
      128.763      6.65302
       128.62      6.90025
      128.477      7.15664
      128.334      7.42252
      128.191      7.69826
      128.048       7.9842
      127.905      8.28073
      127.762      8.58824
      127.619      8.90713
      127.476      9.23783
      127.333      9.58076
       127.19      9.93639
      127.047      10.3052
      126.904      10.6876
      126.761      11.0842
      126.618      11.4954
      126.475      11.9219
      126.332      12.3641
       126.19      12.8227
      126.047      13.2982
      125.904      13.7913
      125.761      14.3026
      125.618      14.8328
      125.475      15.3826
      125.332      15.9528
      125.189       16.544
      125.046       17.157
      124.903      17.7927
       124.76      18.4518
      124.617      19.1353
      124.474       19.844
      124.331      20.5789
      124.188       21.341
      124.045      22.1311
      123.902      22.9504
      123.759      23.7999
      123.616      24.6808
      123.473      25.5942
       123.33      26.5412
      123.187      27.5232
      123.045      28.5414
      122.902      29.5971
      122.759      30.6918
      122.616      31.8268
      122.473      33.0036
       122.33      34.2239
      122.187       35.489
      122.044      36.8008
      121.901       38.161
      121.758      39.5712
      121.615      41.0333
      121.472      42.5493
      121.329      44.1212
      121.186      45.7509
      121.043      47.4406
        120.9      49.1924
      120.757      51.0088
      120.614       52.892
      120.471      54.8445
      120.328      56.8688
      120.185      58.9676
      120.042      61.1435
        119.9      63.3995
      119.757      65.7385
      119.614      68.1634
      119.471      70.6775
      119.328       73.284
      119.185      75.9863
      119.042      78.7879
      118.899      81.6924
      118.756      84.7036
      118.613      87.8255
       118.47       91.062
      118.327      94.4174
      118.184      97.8959
      118.041      101.502
      117.898      105.241
      117.755      109.117
      117.612      113.135
      117.469        117.3
      117.326      121.619
      117.183      126.096
       117.04      130.737
      116.897      135.548
      116.754      140.536
      116.612      145.706
      116.469      151.067
      116.326      156.623
      116.183      162.384
       116.04      168.355
      115.897      174.545
      115.754      180.962
      115.611      187.614
      115.468       194.51
      115.325      201.658
      115.182      209.068
      115.039       216.75
      114.896      224.712
      114.753      232.966
       114.61      241.523
      114.467      250.392
      114.324      259.586
      114.181      269.116
      114.038      278.994
      113.895      289.235
      113.752      299.849
      113.609      310.852
      113.467      322.257
      113.324      334.078
      113.181      346.332
      113.038      359.034
      112.895        372.2
      112.752      385.847
      112.609      399.992
      112.466      414.654
      112.323      429.852
       112.18      445.604
      112.037      461.932
      111.894      478.855
      111.751      496.397
      111.608      514.578
      111.465      533.423
      111.322      552.956
      111.179      573.201
      111.036      594.184
      110.893      615.933
       110.75      638.475
      110.607      661.839
      110.464      686.055
      110.322      711.153
      110.179      737.166
      110.036      764.127
      109.893       792.07
       109.75      821.031
      109.607      851.047
      109.464      882.156
      109.321      914.399
      109.178      947.815
      109.035      982.447
      108.892      1018.34
      108.749      1055.54
      108.606      1094.09
      108.463      1134.05
       108.32      1175.46
      108.177      1218.37
      108.034      1262.85
      107.891      1308.94
      107.748      1356.71
      107.605      1406.22
      107.462      1457.52
      107.319      1510.69
      107.176       1565.8
      107.034       1622.9
      106.891      1682.08
      106.748      1743.41
      106.605      1806.96
      106.462      1872.83
      106.319      1941.08
      106.176      2011.81
      106.033      2085.11
       105.89      2161.07
      105.747      2239.79
      105.604      2321.36
      105.461      2405.89
      105.318      2493.48
      105.175      2584.26
      105.032      2678.32
      104.889       2775.8
      104.746       2876.8
      104.603      2981.47
       104.46      3089.93
      104.317      3202.32
      104.174      3318.78
      104.031      3439.47
      103.889      3564.52
      103.746       3694.1
      103.603      3828.37
       103.46       3967.5
      103.317      4111.67
      103.174      4261.05
      103.031      4415.84
      102.888      4576.23
      102.745      4742.42
      102.602      4914.62
      102.459      5093.05
      102.316      5277.93
      102.173       5469.5
       102.03      5667.99
      101.887      5873.65
      101.744      6086.74
      101.601      6307.54
      101.458       6536.3
      101.315      6773.34
      101.172      7018.93
      101.029      7273.38
      100.886      7537.03
      100.743      7810.19
      100.601      8093.21
      100.458      8386.44
      100.315      8690.26
      100.172      9005.03
      100.029      9331.15
      99.8858      9669.04
      99.7428      10019.1
      99.5998      10381.8
      99.4569      10757.6
      99.3139      11146.9
       99.171      11550.2
       99.028      11968.1
      98.8851        12401
      98.7421      12849.5
      98.5992      13314.2
      98.4562      13795.6
      98.3133      14294.3
      98.1703        14811
      98.0273      15346.2
      97.8844      15900.8
      97.7414      16475.3
      97.5985      17070.4
      97.4555        17687
      97.3126      18325.7
      97.1696      18987.4
      97.0267      19672.9
      96.8837        20383
      96.7407      21118.7
      96.5978      21880.7
      96.4548      22670.2
      96.3119        23488
      96.1689      24335.2
       96.026      25212.8
       95.883      26121.9
      95.7401      27063.7
      95.5971      28039.2
      95.4541      29049.8
      95.3112      30096.6
      95.1682        31181
      95.0253      32304.3
      94.8823      33467.9
      94.7394      34673.1
      94.5964      35921.6
      94.4535      37214.9
      94.3105      38554.5
      94.1675      39942.1
      94.0246      41379.4
      93.8816      42868.2
      93.7387      44410.3
      93.5957      46007.6
      93.4528      47662.2
      93.3098        49376
      93.1669      51151.1
      93.0239      52989.7
      92.8809      54894.1
       92.738      56866.7
       92.595      58909.8
      92.4521      61025.9
      92.3091      63217.8
      92.1662        65488
      92.0232      67839.3
      91.8803      70274.7
      91.7373      72797.1
      91.5943      75409.6
      91.4514      78115.4
      91.3084      80917.9
      91.1655      83820.5
      91.0225      86826.6
      90.8796      89940.1
      90.7366      93164.7
      90.5937      96504.4
      90.4507      99963.2
      90.3078       103545
      90.1648       107255
      90.0218       111098
      89.8789       115077
      89.7359       119198
       89.593       123466
        89.45       127886
      89.3071       132464
      89.1641       137204
      89.0212       142114
      88.8782       147198
      88.7352       152463
      88.5923       157916
      88.4493       163563
      88.3064       169411
      88.1634       175466
      88.0205       181738
      87.8775       188232
      87.7346       194957
      87.5916       201921
      87.4486       209133
      87.3057       216601
      87.1627       224335
      87.0198       232343
      86.8768       240636
      86.7339       249224
      86.5909       258116
       86.448       267324
       86.305       276859
       86.162       286732
      86.0191       296956
      85.8761       307542
      85.7332       318504
      85.5902       329854
      85.4473       341607
      85.3043       353777
      85.1614       366378
      85.0184       379426
      84.8754       392936
      84.7325       406925
      84.5895       421409
      84.4466       436406
      84.3036       451934
      84.1607       468011
      84.0177       484658
      83.8748       501894
      83.7318       519740
      83.5889       538217
      83.4459       557347
      83.3029       577154
        83.16       597661
       83.017       618893
      82.8741       640876
      82.7311       663635
      82.5882       687198
      82.4452       711594
      82.3023       736851
      82.1593       763000
      82.0163       790071
      81.8734       818099
      81.7304       847115
      81.5875       877156
      81.4445       908256
      81.3016       940452
      81.1586       973784
      81.0157  1.00829e+06
      80.8727  1.04402e+06
      80.7297    1.081e+06
      80.5868  1.11928e+06
      80.4438  1.15892e+06
      80.3009  1.19995e+06
      80.1579  1.24242e+06
       80.015  1.28639e+06
       79.872  1.33191e+06
      79.7291  1.37903e+06
      79.5861  1.42781e+06
      79.4431   1.4783e+06
      79.3002  1.53057e+06
      79.1572  1.58468e+06
      79.0143  1.64069e+06
      78.8713  1.69867e+06
      78.7284  1.75869e+06
      78.5854  1.82082e+06
      78.4425  1.88513e+06
      78.2995   1.9517e+06
      78.1565   2.0206e+06
      78.0136  2.09193e+06
      77.8706  2.16576e+06
      77.7277  2.24218e+06
      77.5847  2.32128e+06
      77.4418  2.40316e+06
      77.2988  2.48791e+06
      77.1559  2.57563e+06
      77.0129  2.66642e+06
      76.8699   2.7604e+06
       76.727  2.85768e+06
       76.584  2.95836e+06
      76.4411  3.06257e+06
      76.2981  3.17043e+06
      76.1552  3.28207e+06
      76.0122  3.39761e+06
      75.8693  3.51721e+06
      75.7263  3.64098e+06
      75.5834  3.76909e+06
      75.4404  3.90168e+06
      75.2974  4.03891e+06
      75.1545  4.18093e+06
      75.0115  4.32792e+06
      74.8686  4.48005e+06
      74.7256   4.6375e+06
      74.5827  4.80045e+06
      74.4397  4.96909e+06
      74.2968  5.14362e+06
      74.1538  5.32425e+06
      74.0108  5.51118e+06
      73.8679  5.70464e+06
      73.7249  5.90484e+06
       73.582  6.11204e+06
       73.439  6.32646e+06
      73.2961  6.54836e+06
      73.1531  6.77799e+06
      73.0102  7.01564e+06
      72.8672  7.26156e+06
      72.7242  7.51606e+06
      72.5813  7.77942e+06
      72.4383  8.05195e+06
      72.2954  8.33398e+06
      72.1524  8.62583e+06
      72.0095  8.92783e+06
      71.8665  9.24035e+06
      71.7236  9.56374e+06
      71.5806  9.89838e+06
      71.4376  1.02447e+07
      71.2947   1.0603e+07
      71.1517  1.09738e+07
      71.0088  1.13574e+07
      70.8658  1.17544e+07
      70.7229  1.21652e+07
      70.5799  1.25903e+07
       70.437  1.30301e+07
       70.294  1.34852e+07
       70.151  1.39561e+07
      70.0081  1.44433e+07
      69.8651  1.49474e+07
      69.7222  1.54691e+07
      69.5792  1.60088e+07
      69.4363  1.65672e+07
      69.2933   1.7145e+07
      69.1504  1.77428e+07
      69.0074  1.83614e+07
      68.8644  1.90013e+07
      68.7215  1.96634e+07
      68.5785  2.03485e+07
      68.4356  2.10573e+07
      68.2926  2.17906e+07
      68.1497  2.25493e+07
      68.0067  2.33342e+07
      67.8638  2.41463e+07
      67.7208  2.49864e+07
      67.5779  2.58557e+07
      67.4349  2.67549e+07
      67.2919  2.76853e+07
       67.149  2.86478e+07
       67.006  2.96435e+07
      66.8631  3.06736e+07
      66.7201  3.17393e+07
      66.5772  3.28418e+07
      66.4342  3.39823e+07
      66.2913  3.51622e+07
      66.1483  3.63828e+07
      66.0053  3.76454e+07
      65.8624  3.89517e+07
      65.7194  4.03029e+07
      65.5765  4.17007e+07
      65.4335  4.31467e+07
      65.2906  4.46425e+07
      65.1476  4.61898e+07
      65.0047  4.77904e+07
      64.8617  4.94461e+07
      64.7187  5.11587e+07
      64.5758  5.29303e+07
      64.4328  5.47629e+07
      64.2899  5.66584e+07
      64.1469  5.86192e+07
       64.004  6.06473e+07
       63.861  6.27452e+07
      63.7181  6.49151e+07
      63.5751  6.71596e+07
      63.4321  6.94811e+07
      63.2892  7.18824e+07
      63.1462  7.43661e+07
      63.0033   7.6935e+07
      62.8603  7.95921e+07
      62.7174  8.23403e+07
      62.5744  8.51828e+07
      62.4315  8.81227e+07
      62.2885  9.11634e+07
      62.1455  9.43083e+07
      62.0026   9.7561e+07
      61.8596  1.00925e+08
      61.7167  1.04404e+08
      61.5737  1.08003e+08
      61.4308  1.11724e+08
      61.2878  1.15573e+08
      61.1449  1.19554e+08
      61.0019   1.2367e+08
       60.859  1.27928e+08
       60.716  1.32331e+08
       60.573  1.36885e+08
      60.4301  1.41594e+08
      60.2871  1.46464e+08
      60.1442    1.515e+08
      60.0012  1.56708e+08
      59.8583  1.62094e+08
      59.7153  1.67664e+08
      59.5724  1.73424e+08
      59.4294   1.7938e+08
      59.2864   1.8554e+08
      59.1435  1.91909e+08
      59.0005  1.98496e+08
      58.8576  2.05307e+08
      58.7146   2.1235e+08
      58.5717  2.19633e+08
      58.4287  2.27164e+08
      58.2858  2.34951e+08
      58.1428  2.43003e+08
      57.9998   2.5133e+08
      57.8569  2.59939e+08
      57.7139  2.68841e+08
       57.571  2.78046e+08
       57.428  2.87564e+08
      57.2851  2.97405e+08
      57.1421   3.0758e+08
      56.9992  3.18101e+08
      56.8562   3.2898e+08
      56.7132  3.40227e+08
      56.5703  3.51856e+08
      56.4273   3.6388e+08
      56.2844  3.76312e+08
      56.1414  3.89165e+08
      55.9985  4.02454e+08
      55.8555  4.16193e+08
      55.7126  4.30397e+08
      55.5696  4.45083e+08
      55.4266  4.60267e+08
      55.2837  4.75964e+08
      55.1407  4.92192e+08
      54.9978   5.0897e+08
      54.8548  5.26315e+08
      54.7119  5.44247e+08
      54.5689  5.62785e+08
       54.426   5.8195e+08
       54.283  6.01762e+08
        54.14  6.22244e+08
      53.9971  6.43417e+08
      53.8541  6.65305e+08
      53.7112  6.87932e+08
      53.5682  7.11323e+08
      53.4253  7.35503e+08
      53.2823  7.60498e+08
      53.1394  7.86336e+08
      52.9964  8.13045e+08
      52.8535  8.40655e+08
      52.7105  8.69194e+08
      52.5675  8.98695e+08
      52.4246  9.29189e+08
      52.2816  9.60709e+08
      52.1387  9.93291e+08
      51.9957  1.02697e+09
      51.8528  1.06178e+09
      51.7098  1.09776e+09
      51.5669  1.13495e+09
      51.4239  1.17339e+09
      51.2809  1.21312e+09
       51.138  1.25419e+09
       50.995  1.29663e+09
      50.8521   1.3405e+09
      50.7091  1.38584e+09
      50.5662  1.43271e+09
      50.4232  1.48114e+09
      50.2803   1.5312e+09
      50.1373  1.58294e+09
      49.9943  1.63641e+09
      49.8514  1.69167e+09
      49.7084  1.74878e+09
      49.5655  1.80781e+09
      49.4225  1.86881e+09
      49.2796  1.93185e+09
      49.1366    1.997e+09
      48.9937  2.06434e+09
      48.8507  2.13392e+09
      48.7077  2.20582e+09
      48.5648  2.28013e+09
      48.4218  2.35693e+09
      48.2789  2.43628e+09
      48.1359  2.51829e+09
       47.993  2.60303e+09
        47.85   2.6906e+09
      47.7071  2.78109e+09
      47.5641   2.8746e+09
      47.4211  2.97123e+09
      47.2782  3.07107e+09
      47.1352  3.17425e+09
      46.9923  3.28086e+09
      46.8493  3.39101e+09
      46.7064  3.50484e+09
      46.5634  3.62245e+09
      46.4205  3.74398e+09
      46.2775  3.86954e+09
      46.1345  3.99929e+09
      45.9916  4.13334e+09
      45.8486  4.27185e+09
      45.7057  4.41495e+09
      45.5627  4.56281e+09
      45.4198  4.71558e+09
      45.2768  4.87342e+09
      45.1339  5.03649e+09
      44.9909  5.20497e+09
       44.848  5.37904e+09
       44.705  5.55888e+09
       44.562  5.74467e+09
      44.4191  5.93662e+09
      44.2761  6.13493e+09
      44.1332   6.3398e+09
      43.9902  6.55144e+09
      43.8473   6.7701e+09
      43.7043  6.99598e+09
      43.5614  7.22933e+09
      43.4184  7.47039e+09
      43.2754  7.71942e+09
      43.1325  7.97667e+09
      42.9895  8.24241e+09
      42.8466  8.51693e+09
      42.7036  8.80051e+09
      42.5607  9.09344e+09
      42.4177  9.39603e+09
      42.2748   9.7086e+09
      42.1318  1.00315e+10
      41.9888   1.0365e+10
      41.8459  1.07095e+10
      41.7029  1.10653e+10
        41.56  1.14328e+10
       41.417  1.18125e+10
      41.2741  1.22046e+10
      41.1311  1.26096e+10
      40.9882  1.30279e+10
      40.8452    1.346e+10
      40.7022  1.39062e+10
      40.5593  1.43672e+10
      40.4163  1.48432e+10
      40.2734  1.53349e+10
      40.1304  1.58427e+10
      39.9875  1.63671e+10
      39.8445  1.69088e+10
