Temperature = 1467.95K
THERMAL DISTRIBUTIONS:
  E, kcal/mol           W1
      130.172    0.0103148
      130.029    0.0107586
      129.886    0.0112213
      129.743     0.011704
        129.6    0.0122073
      129.458    0.0127322
      129.315    0.0132797
      129.172    0.0138506
      129.029     0.014446
      128.886     0.015067
      128.743    0.0157146
        128.6      0.01639
      128.457    0.0170943
      128.314    0.0178288
      128.171    0.0185948
      128.028    0.0193936
      127.885    0.0202266
      127.742    0.0210954
      127.599    0.0220014
      127.456    0.0229462
      127.313    0.0239315
       127.17    0.0249589
      127.027    0.0260304
      126.884    0.0271478
      126.741     0.028313
      126.598    0.0295281
      126.455    0.0307953
      126.312    0.0321166
       126.17    0.0334946
      126.027    0.0349315
      125.884    0.0364299
      125.741    0.0379925
      125.598    0.0396218
      125.455    0.0413209
      125.312    0.0430927
      125.169    0.0449403
      125.026    0.0468669
      124.883    0.0488758
       124.74    0.0509707
      124.597    0.0531552
      124.454     0.055433
      124.311    0.0578082
      124.168    0.0602849
      124.025    0.0628675
      123.882    0.0655605
      123.739    0.0683685
      123.596    0.0712965
      123.453    0.0743495
       123.31     0.077533
      123.167    0.0808524
      123.025    0.0843136
      122.882    0.0879226
      122.739    0.0916857
      122.596    0.0956095
      122.453    0.0997007
       122.31     0.103967
      122.167     0.108415
      122.024     0.113052
      121.881     0.117888
      121.738      0.12293
      121.595     0.128187
      121.452     0.133668
      121.309     0.139383
      121.166     0.145342
      121.023     0.151555
       120.88     0.158033
      120.737     0.164787
      120.594     0.171829
      120.451     0.179171
      120.308     0.186826
      120.165     0.194807
      120.022     0.203128
      119.879     0.211804
      119.737      0.22085
      119.594      0.23028
      119.451     0.240113
      119.308     0.250364
      119.165     0.261051
      119.022     0.272194
      118.879     0.283811
      118.736     0.295923
      118.593      0.30855
       118.45     0.321714
      118.307     0.335439
      118.164     0.349747
      118.021     0.364665
      117.878     0.380217
      117.735      0.39643
      117.592     0.413333
      117.449     0.430955
      117.306     0.449326
      117.163     0.468478
       117.02     0.488445
      116.877      0.50926
      116.734     0.530959
      116.592     0.553581
      116.449     0.577164
      116.306      0.60175
      116.163     0.627379
       116.02     0.654097
      115.877     0.681951
      115.734     0.710986
      115.591     0.741255
      115.448     0.772809
      115.305     0.805703
      115.162     0.839993
      115.019     0.875738
      114.876     0.913001
      114.733     0.951844
       114.59     0.992336
      114.447      1.03455
      114.304      1.07855
      114.161      1.12441
      114.018      1.17222
      113.875      1.22206
      113.732      1.27401
      113.589      1.32817
      113.447      1.38462
      113.304      1.44346
      113.161       1.5048
      113.018      1.56873
      112.875      1.63538
      112.732      1.70485
      112.589      1.77726
      112.446      1.85273
      112.303      1.93141
       112.16      2.01341
      112.017      2.09889
      111.874      2.18799
      111.731      2.28086
      111.588      2.37766
      111.445      2.47855
      111.302      2.58372
      111.159      2.69333
      111.016      2.80758
      110.873      2.92667
       110.73      3.05079
      110.587      3.18016
      110.444        3.315
      110.301      3.45555
      110.159      3.60203
      110.016      3.75471
      109.873      3.91383
       109.73      4.07969
      109.587      4.25255
      109.444      4.43272
      109.301      4.62049
      109.158       4.8162
      109.015      5.02017
      108.872      5.23276
      108.729      5.45432
      108.586      5.68524
      108.443      5.92591
        108.3      6.17673
      108.157      6.43814
      108.014      6.71058
      107.871      6.99452
      107.728      7.29043
      107.585      7.59883
      107.442      7.92023
      107.299      8.25519
      107.156      8.60428
      107.014      8.96808
      106.871      9.34722
      106.728      9.74234
      106.585      10.1541
      106.442      10.5832
      106.299      11.0304
      106.156      11.4965
      106.013      11.9822
       105.87      12.4883
      105.727      13.0158
      105.584      13.5654
      105.441      14.1382
      105.298      14.7352
      105.155      15.3572
      105.012      16.0054
      104.869       16.681
      104.726      17.3849
      104.583      18.1184
       104.44      18.8829
      104.297      19.6794
      104.154      20.5095
      104.011      21.3744
      103.868      22.2758
      103.726       23.215
      103.583      24.1937
       103.44      25.2136
      103.297      26.2763
      103.154      27.3836
      103.011      28.5375
      102.868      29.7399
      102.725      30.9927
      102.582      32.2982
      102.439      33.6585
      102.296      35.0759
      102.153      36.5528
       102.01      38.0917
      101.867      39.6952
      101.724       41.366
      101.581      43.1069
      101.438      44.9208
      101.295      46.8108
      101.152      48.7801
      101.009       50.832
      100.866      52.9699
      100.723      55.1974
      100.581      57.5183
      100.438      59.9366
      100.295      62.4561
      100.152      65.0812
      100.009      67.8164
      99.8657      70.6661
      99.7228      73.6351
      99.5798      76.7285
      99.4369      79.9515
      99.2939      83.3094
       99.151      86.8079
       99.008      90.4528
      98.8651      94.2503
      98.7221      98.2067
      98.5791      102.329
      98.4362      106.623
      98.2932      111.097
      98.1503      115.758
      98.0073      120.614
      97.8644      125.673
      97.7214      130.944
      97.5785      136.435
      97.4355      142.156
      97.2926      148.115
      97.1496      154.324
      97.0066      160.792
      96.8637       167.53
      96.7207      174.549
      96.5778      181.862
      96.4348       189.48
      96.2919      197.417
      96.1489      205.684
       96.006      214.297
       95.863      223.269
        95.72      232.615
      95.5771      242.351
      95.4341      252.494
      95.2912      263.059
      95.1482      274.066
      95.0053      285.531
      94.8623      297.474
      94.7194      309.915
      94.5764      322.875
      94.4334      336.374
      94.2905      350.436
      94.1475      365.085
      94.0046      380.343
      93.8616      396.237
      93.7187      412.792
      93.5757      430.038
      93.4328      448.001
      93.2898      466.712
      93.1468      486.201
      93.0039      506.502
      92.8609      527.648
       92.718      549.673
       92.575      572.614
      92.4321       596.51
      92.2891        621.4
      92.1462      647.324
      92.0032      674.326
      91.8602      702.451
      91.7173      731.744
      91.5743      762.255
      91.4314      794.034
      91.2884      827.132
      91.1455      861.606
      91.0025      897.512
      90.8596      934.908
      90.7166      973.857
      90.5736      1014.42
      90.4307      1056.67
      90.2877      1100.68
      90.1448      1146.51
      90.0018      1194.24
      89.8589      1243.95
      89.7159      1295.72
       89.573      1349.64
        89.43       1405.8
      89.2871      1464.28
      89.1441      1525.19
      89.0011      1588.62
      88.8582      1654.68
      88.7152      1723.48
      88.5723      1795.13
      88.4293      1869.74
      88.2864      1947.45
      88.1434      2028.37
      88.0005      2112.65
      87.8575      2200.41
      87.7145      2291.81
      87.5716      2386.99
      87.4286       2486.1
      87.2857      2589.32
      87.1427      2696.81
      86.9998      2808.74
      86.8568       2925.3
      86.7139      3046.68
      86.5709      3173.08
      86.4279       3304.7
       86.285      3441.76
       86.142      3584.49
      85.9991      3733.11
      85.8561      3887.88
      85.7132      4049.03
      85.5702      4216.84
      85.4273      4391.57
      85.2843      4573.53
      85.1413      4762.99
      84.9984      4960.27
      84.8554      5165.69
      84.7125      5379.58
      84.5695       5602.3
      84.4266      5834.21
      84.2836      6075.67
      84.1407       6327.1
      83.9977      6588.89
      83.8547      6861.46
      83.7118      7145.28
      83.5688      7440.78
      83.4259      7748.46
      83.2829      8068.82
        83.14      8402.36
       82.997      8749.65
      82.8541      9111.23
      82.7111      9487.69
      82.5681      9879.65
      82.4252      10287.7
      82.2822      10712.6
      82.1393        11155
      81.9963      11615.5
      81.8534        12095
      81.7104      12594.3
      81.5675        13114
      81.4245      13655.1
      81.2816      14218.4
      81.1386      14804.9
      80.9956      15415.5
      80.8527      16051.2
      80.7097      16712.9
      80.5668      17401.9
      80.4238      18119.1
      80.2809      18865.8
      80.1379      19643.1
       79.995      20452.4
       79.852      21294.8
       79.709      22171.8
      79.5661      23084.7
      79.4231      24035.2
      79.2802      25024.5
      79.1372      26054.5
      78.9943      27126.6
      78.8513      28242.7
      78.7084      29404.5
      78.5654        30614
      78.4224      31872.9
      78.2795      33183.5
      78.1365      34547.7
      77.9936      35967.7
      77.8506      37445.9
      77.7077      38984.6
      77.5647      40586.2
      77.4218      42253.4
      77.2788      43988.8
      77.1358      45795.1
      76.9929      47675.3
      76.8499      49632.4
       76.707      51669.5
       76.564      53789.9
      76.4211      55996.9
      76.2781      58294.1
      76.1352      60685.1
      75.9922      63173.8
      75.8492      65764.1
      75.7063      68460.1
      75.5633      71266.3
      75.4204      74186.9
      75.2774      77226.8
      75.1345      80390.7
      74.9915      83683.6
      74.8486      87110.9
      74.7056      90677.9
      74.5626      94390.4
      74.4197      98254.2
      74.2767       102275
      74.1338       106461
      73.9908       110816
      73.8479       115349
      73.7049       120067
       73.562       124977
       73.419       130087
      73.2761       135404
      73.1331       140939
      72.9901       146698
      72.8472       152692
      72.7042       158929
      72.5613       165420
      72.4183       172176
      72.2754       179205
      72.1324       186521
      71.9895       194134
      71.8465       202056
      71.7035       210300
      71.5606       218879
      71.4176       227806
      71.2747       237096
      71.1317       246763
      70.9888       256822
      70.8458       267290
      70.7029       278182
      70.5599       289516
      70.4169       301310
       70.274       313582
       70.131       326352
      69.9881       339639
      69.8451       353465
      69.7022       367851
      69.5592       382820
      69.4163       398395
      69.2733       414601
      69.1303       431463
      68.9874       449008
      68.8444       467263
      68.7015       486256
      68.5585       506018
      68.4156       526580
      68.2726       547973
      68.1297       570231
      67.9867       593390
      67.8437       617484
      67.7008       642552
      67.5578       668633
      67.4149       695767
      67.2719       723998
       67.129       753368
       66.986       783925
      66.8431       815714
      66.7001       848787
      66.5572       883195
      66.4142       918990
      66.2712       956230
      66.1283       994971
      65.9853  1.03527e+06
      65.8424   1.0772e+06
      65.6994  1.12082e+06
      65.5565  1.16619e+06
      65.4135   1.2134e+06
      65.2706   1.2625e+06
      65.1276  1.31359e+06
      64.9846  1.36672e+06
      64.8417    1.422e+06
      64.6987  1.47951e+06
      64.5558  1.53932e+06
      64.4128  1.60155e+06
      64.2699  1.66627e+06
      64.1269   1.7336e+06
       63.984  1.80364e+06
       63.841  1.87649e+06
       63.698  1.95227e+06
      63.5551   2.0311e+06
      63.4121  2.11309e+06
      63.2692  2.19838e+06
      63.1262  2.28709e+06
      62.9833  2.37936e+06
      62.8403  2.47534e+06
      62.6974  2.57517e+06
      62.5544    2.679e+06
      62.4114    2.787e+06
      62.2685  2.89933e+06
      62.1255  3.01617e+06
      61.9826  3.13769e+06
      61.8396  3.26408e+06
      61.6967  3.39554e+06
      61.5537  3.53227e+06
      61.4108  3.67447e+06
      61.2678  3.82237e+06
      61.1248  3.97619e+06
      60.9819  4.13616e+06
      60.8389  4.30255e+06
       60.696  4.47559e+06
       60.553  4.65555e+06
      60.4101  4.84271e+06
      60.2671  5.03736e+06
      60.1242  5.23979e+06
      59.9812  5.45031e+06
      59.8382  5.66925e+06
      59.6953  5.89693e+06
      59.5523  6.13371e+06
      59.4094  6.37995e+06
      59.2664  6.63602e+06
      59.1235  6.90232e+06
      58.9805  7.17924e+06
      58.8376  7.46722e+06
      58.6946  7.76669e+06
      58.5517   8.0781e+06
      58.4087  8.40193e+06
      58.2657  8.73867e+06
      58.1228  9.08884e+06
      57.9798  9.45297e+06
      57.8369   9.8316e+06
      57.6939  1.02253e+07
       57.551  1.06347e+07
       57.408  1.10604e+07
      57.2651  1.15031e+07
      57.1221  1.19633e+07
      56.9791  1.24419e+07
      56.8362  1.29396e+07
      56.6932   1.3457e+07
      56.5503   1.3995e+07
      56.4073  1.45544e+07
      56.2644   1.5136e+07
      56.1214  1.57407e+07
      55.9785  1.63695e+07
      55.8355  1.70232e+07
      55.6925   1.7703e+07
      55.5496  1.84097e+07
      55.4066  1.91444e+07
      55.2637  1.99083e+07
      55.1207  2.07025e+07
      54.9778  2.15283e+07
      54.8348  2.23868e+07
      54.6919  2.32793e+07
      54.5489  2.42072e+07
      54.4059  2.51719e+07
       54.263  2.61748e+07
        54.12  2.72174e+07
      53.9771  2.83013e+07
      53.8341  2.94282e+07
      53.6912  3.05997e+07
      53.5482  3.18175e+07
      53.4053  3.30835e+07
      53.2623  3.43996e+07
      53.1193  3.57678e+07
      52.9764    3.719e+07
      52.8334  3.86685e+07
      52.6905  4.02055e+07
      52.5475  4.18031e+07
      52.4046  4.34639e+07
      52.2616  4.51903e+07
      52.1187  4.69848e+07
      51.9757  4.88502e+07
      51.8327  5.07892e+07
      51.6898  5.28047e+07
      51.5468  5.48997e+07
      51.4039  5.70774e+07
      51.2609  5.93409e+07
       51.118  6.16937e+07
       50.975  6.41392e+07
      50.8321   6.6681e+07
      50.6891   6.9323e+07
      50.5462   7.2069e+07
      50.4032  7.49231e+07
      50.2602  7.78896e+07
      50.1173  8.09729e+07
      49.9743  8.41774e+07
      49.8314   8.7508e+07
      49.6884  9.09696e+07
      49.5455  9.45673e+07
      49.4025  9.83064e+07
      49.2596  1.02192e+08
      49.1166  1.06231e+08
      48.9736  1.10428e+08
      48.8307  1.14791e+08
      48.6877  1.19324e+08
      48.5448  1.24035e+08
      48.4018  1.28932e+08
      48.2589   1.3402e+08
      48.1159  1.39308e+08
       47.973  1.44803e+08
        47.83  1.50514e+08
       47.687  1.56448e+08
      47.5441  1.62615e+08
      47.4011  1.69023e+08
      47.2582  1.75683e+08
      47.1152  1.82603e+08
      46.9723  1.89794e+08
      46.8293  1.97266e+08
      46.6864  2.05031e+08
      46.5434  2.13099e+08
      46.4004  2.21483e+08
      46.2575  2.30195e+08
      46.1145  2.39247e+08
      45.9716  2.48653e+08
      45.8286  2.58426e+08
      45.6857  2.68581e+08
      45.5427  2.79132e+08
      45.3998  2.90095e+08
      45.2568  3.01486e+08
      45.1138  3.13321e+08
      44.9709  3.25617e+08
      44.8279  3.38394e+08
       44.685  3.51668e+08
       44.542  3.65459e+08
      44.3991  3.79788e+08
      44.2561  3.94675e+08
      44.1132  4.10141e+08
      43.9702   4.2621e+08
      43.8273  4.42904e+08
      43.6843  4.60247e+08
      43.5413  4.78265e+08
      43.3984  4.96984e+08
      43.2554   5.1643e+08
      43.1125  5.36632e+08
      42.9695  5.57619e+08
      42.8266  5.79421e+08
      42.6836   6.0207e+08
      42.5407  6.25598e+08
      42.3977   6.5004e+08
      42.2547   6.7543e+08
      42.1118  7.01804e+08
      41.9688  7.29202e+08
      41.8259  7.57662e+08
      41.6829  7.87224e+08
        41.54  8.17933e+08
       41.397  8.49831e+08
      41.2541  8.82964e+08
      41.1111   9.1738e+08
      40.9681  9.53128e+08
      40.8252   9.9026e+08
      40.6822  1.02883e+09
      40.5393  1.06889e+09
      40.3963   1.1105e+09
      40.2534  1.15371e+09
      40.1104   1.1986e+09
      39.9675  1.24522e+09
      39.8245  1.29364e+09
      39.6815  1.34393e+09
      39.5386  1.39616e+09
      39.3956  1.45041e+09
      39.2527  1.50675e+09
      39.1097  1.56526e+09
      38.9668  1.62603e+09
      38.8238  1.68914e+09
      38.6809  1.75468e+09
      38.5379  1.82275e+09
      38.3949  1.89343e+09
       38.252  1.96684e+09
       38.109  2.04308e+09
      37.9661  2.12225e+09
      37.8231  2.20446e+09
      37.6802  2.28983e+09
      37.5372  2.37849e+09
      37.3943  2.47055e+09
      37.2513  2.56615e+09
      37.1083  2.66542e+09
      36.9654  2.76851e+09
      36.8224  2.87555e+09
      36.6795  2.98669e+09
      36.5365   3.1021e+09
      36.3936  3.22194e+09
      36.2506  3.34637e+09
      36.1077  3.47558e+09
      35.9647  3.60973e+09
      35.8218  3.74902e+09
      35.6788  3.89364e+09
      35.5358  4.04381e+09
      35.3929  4.19971e+09
      35.2499  4.36159e+09
       35.107  4.52965e+09
       34.964  4.70414e+09
      34.8211   4.8853e+09
      34.6781  5.07338e+09
      34.5352  5.26865e+09
      34.3922  5.47137e+09
      34.2492  5.68184e+09
      34.1063  5.90033e+09
      33.9633  6.12716e+09
      33.8204  6.36265e+09
      33.6774  6.60711e+09
      33.5345  6.86089e+09
      33.3915  7.12434e+09
      33.2486  7.39782e+09
      33.1056  7.68172e+09
      32.9626  7.97643e+09
      32.8197  8.28236e+09
      32.6767  8.59992e+09
      32.5338  8.92956e+09
      32.3908  9.27174e+09
      32.2479  9.62692e+09
      32.1049   9.9956e+09
       31.962  1.03783e+10
       31.819  1.07755e+10
       31.676  1.11878e+10
      31.5331  1.16157e+10
      31.3901  1.20599e+10
      31.2472  1.25209e+10
      31.1042  1.29994e+10
      30.9613   1.3496e+10
      30.8183  1.40115e+10
      30.6754  1.45464e+10
      30.5324  1.51017e+10
      30.3894  1.56779e+10
      30.2465  1.62759e+10
      30.1035  1.68966e+10
      29.9606  1.75407e+10
      29.8176  1.82092e+10
      29.6747  1.89029e+10
      29.5317  1.96228e+10
      29.3888    2.037e+10
      29.2458  2.11453e+10
      29.1028  2.19499e+10
      28.9599  2.27848e+10
      28.8169  2.36512e+10
       28.674  2.45503e+10
       28.531  2.54833e+10
      28.3881  2.64514e+10
      28.2451   2.7456e+10
      28.1022  2.84984e+10
      27.9592    2.958e+10
      27.8163  3.07023e+10
      27.6733  3.18668e+10
      27.5303  3.30751e+10
      27.3874  3.43288e+10
      27.2444  3.56296e+10
      27.1015  3.69793e+10
      26.9585  3.83796e+10
      26.8156  3.98325e+10
      26.6726  4.13399e+10
      26.5297  4.29038e+10
      26.3867  4.45264e+10
      26.2437  4.62097e+10
      26.1008  4.79562e+10
      25.9578   4.9768e+10
      25.8149  5.16476e+10
      25.6719  5.35976e+10
       25.529  5.56206e+10
       25.386  5.77192e+10
      25.2431  5.98963e+10
      25.1001  6.21547e+10
      24.9571  6.44974e+10
      24.8142  6.69277e+10
