Temperature = 814.908K
THERMAL DISTRIBUTIONS:
  E, kcal/mol           W1
      78.2652  1.70448e-09
      78.1222  1.84563e-09
      77.9793  1.99845e-09
      77.8363  2.16392e-09
      77.6934  2.34307e-09
      77.5504  2.53703e-09
      77.4075  2.74703e-09
      77.2645   2.9744e-09
      77.1216  3.22056e-09
      76.9786  3.48708e-09
      76.8356  3.77562e-09
      76.6927  4.08802e-09
      76.5497  4.42623e-09
      76.4068   4.7924e-09
      76.2638  5.18882e-09
      76.1209    5.618e-09
      75.9779  6.08263e-09
       75.835  6.58565e-09
       75.692  7.13022e-09
       75.549  7.71977e-09
      75.4061  8.35802e-09
      75.2631  9.04897e-09
      75.1202  9.79697e-09
      74.9772  1.06067e-08
      74.8343  1.14834e-08
      74.6913  1.24324e-08
      74.5484  1.34597e-08
      74.4054  1.45718e-08
      74.2624  1.57757e-08
      74.1195   1.7079e-08
      73.9765  1.84898e-08
      73.8336   2.0017e-08
      73.6906  2.16702e-08
      73.5477  2.34598e-08
      73.4047   2.5397e-08
      73.2618   2.7494e-08
      73.1188  2.97639e-08
      72.9758   3.2221e-08
      72.8329  3.48807e-08
      72.6899  3.77598e-08
       72.547  4.08761e-08
       72.404  4.42494e-08
      72.2611  4.79007e-08
      72.1181   5.1853e-08
      71.9752   5.6131e-08
      71.8322  6.07615e-08
      71.6892  6.57736e-08
      71.5463  7.11986e-08
      71.4033  7.70705e-08
      71.2604  8.34261e-08
      71.1174  9.03053e-08
      70.9745   9.7751e-08
      70.8315   1.0581e-07
      70.6886  1.14532e-07
      70.5456  1.23973e-07
      70.4026  1.34191e-07
      70.2597   1.4525e-07
      70.1167  1.57219e-07
      69.9738  1.70174e-07
      69.8308  1.84194e-07
      69.6879  1.99369e-07
      69.5449  2.15792e-07
       69.402  2.33566e-07
       69.259  2.52802e-07
      69.1161  2.73621e-07
      68.9731  2.96152e-07
      68.8301  3.20537e-07
      68.6872  3.46926e-07
      68.5442  3.75486e-07
      68.4013  4.06394e-07
      68.2583  4.39842e-07
      68.1154  4.76041e-07
      67.9724  5.15214e-07
      67.8295  5.57608e-07
      67.6865  6.03485e-07
      67.5435  6.53133e-07
      67.4006  7.06859e-07
      67.2576     7.65e-07
      67.1147  8.27917e-07
      66.9717  8.96002e-07
      66.8288  9.69679e-07
      66.6858  1.04941e-06
      66.5429  1.13568e-06
      66.3999  1.22904e-06
      66.2569  1.33007e-06
       66.114  1.43938e-06
       65.971  1.55767e-06
      65.8281  1.68567e-06
      65.6851  1.82418e-06
      65.5422  1.97405e-06
      65.3992  2.13622e-06
      65.2563  2.31169e-06
      65.1133  2.50156e-06
      64.9703    2.707e-06
      64.8274   2.9293e-06
      64.6844  3.16982e-06
      64.5415  3.43007e-06
      64.3985  3.71166e-06
      64.2556  4.01634e-06
      64.1126  4.34599e-06
      63.9697  4.70267e-06
      63.8267  5.08858e-06
      63.6837  5.50612e-06
      63.5408  5.95787e-06
      63.3978  6.44664e-06
      63.2549  6.97545e-06
      63.1119  7.54759e-06
       62.969  8.16659e-06
       62.826   8.8363e-06
      62.6831  9.56085e-06
      62.5401  1.03447e-05
      62.3971  1.11928e-05
      62.2542  1.21103e-05
      62.1112  1.31029e-05
      61.9683  1.41768e-05
      61.8253  1.53385e-05
      61.6824  1.65954e-05
      61.5394   1.7955e-05
      61.3965   1.9426e-05
      61.2535  2.10172e-05
      61.1106  2.27387e-05
      60.9676  2.46009e-05
      60.8246  2.66155e-05
      60.6817  2.87948e-05
      60.5387  3.11523e-05
      60.3958  3.37026e-05
      60.2528  3.64613e-05
      60.1099  3.94456e-05
      59.9669  4.26738e-05
       59.824  4.61658e-05
       59.681  4.99432e-05
       59.538  5.40292e-05
      59.3951  5.84491e-05
      59.2521  6.32301e-05
      59.1092  6.84016e-05
      58.9662  7.39954e-05
      58.8233  8.00461e-05
      58.6803  8.65909e-05
      58.5374  9.36701e-05
      58.3944  0.000101327
      58.2514  0.000109609
      58.1085  0.000118568
      57.9655  0.000128257
      57.8226  0.000138737
      57.6796  0.000150072
      57.5367  0.000162332
      57.3937  0.000175592
      57.2508  0.000189934
      57.1078  0.000205445
      56.9648  0.000222222
      56.8219  0.000240366
      56.6789   0.00025999
       56.536  0.000281214
       56.393  0.000304168
      56.2501  0.000328992
      56.1071   0.00035584
      55.9642  0.000384876
      55.8212  0.000416277
      55.6782  0.000450237
      55.5353  0.000486963
      55.3923  0.000526681
      55.2494  0.000569634
      55.1064  0.000616084
      54.9635  0.000666317
      54.8205  0.000720639
      54.6776  0.000779384
      54.5346   0.00084291
      54.3917  0.000911606
      54.2487  0.000985894
      54.1057   0.00106623
      53.9628   0.00115309
      53.8198   0.00124703
      53.6769    0.0013486
      53.5339   0.00145844
       53.391   0.00157721
       53.248   0.00170564
      53.1051   0.00184451
      52.9621   0.00199467
      52.8191   0.00215703
      52.6762   0.00233259
      52.5332   0.00252242
      52.3903   0.00272768
      52.2473   0.00294961
      52.1044   0.00318957
      51.9614   0.00344902
      51.8185   0.00372955
      51.6755   0.00403286
      51.5325   0.00436079
      51.3896   0.00471536
      51.2466   0.00509871
      51.1037   0.00551317
      50.9607   0.00596128
      50.8178   0.00644575
      50.6748   0.00696953
      50.5319   0.00753581
      50.3889   0.00814803
      50.2459   0.00880991
       50.103   0.00952547
        49.96    0.0102991
      49.8171    0.0111354
      49.6741    0.0120395
      49.5312    0.0130169
      49.3882    0.0140736
      49.2453    0.0152159
      49.1023    0.0164507
      48.9593    0.0177856
      48.8164    0.0192287
      48.6734    0.0207887
      48.5305     0.022475
      48.3875    0.0242979
      48.2446    0.0262684
      48.1016    0.0283984
      47.9587    0.0307009
      47.8157    0.0331898
      47.6727    0.0358802
      47.5298    0.0387882
      47.3868    0.0419316
      47.2439    0.0453293
      47.1009    0.0490019
       46.958    0.0529715
       46.815    0.0572622
      46.6721    0.0618999
      46.5291    0.0669126
      46.3862    0.0723306
      46.2432    0.0781865
      46.1002    0.0845157
      45.9573    0.0913565
      45.8143      0.09875
      45.6714     0.106741
      45.5284     0.115377
      45.3855     0.124712
      45.2425       0.1348
      45.0996     0.145702
      44.9566     0.157485
      44.8136      0.17022
      44.6707     0.183982
      44.5277     0.198855
      44.3848     0.214928
      44.2418     0.232299
      44.0989     0.251071
      43.9559     0.271357
       43.813      0.29328
        43.67     0.316971
       43.527     0.342572
      43.3841     0.370238
      43.2411     0.400133
      43.0982     0.432439
      42.9552     0.467349
      42.8123     0.505072
      42.6693     0.545835
      42.5264     0.589882
      42.3834     0.637477
      42.2404     0.688905
      42.0975     0.744476
      41.9545     0.804521
      41.8116     0.869401
      41.6686     0.939504
      41.5257      1.01525
      41.3827      1.09709
      41.2398      1.18552
      41.0968      1.28106
      40.9538      1.38429
      40.8109      1.49582
      40.6679      1.61632
       40.525      1.74652
       40.382      1.88718
      40.2391      2.03915
      40.0961      2.20333
      39.9532      2.38071
      39.8102      2.57235
      39.6672      2.77938
      39.5243      3.00305
      39.3813      3.24468
      39.2384      3.50572
      39.0954      3.78772
      38.9525      4.09237
      38.8095      4.42147
      38.6666        4.777
      38.5236      5.16105
      38.3807      5.57593
      38.2377       6.0241
      38.0947      6.50822
      37.9518      7.03118
      37.8088      7.59608
      37.6659      8.20628
      37.5229      8.86541
        37.38      9.57738
       37.237      10.3464
      37.0941      11.1771
      36.9511      12.0743
      36.8081      13.0435
      36.6652      14.0903
      36.5222      15.2209
      36.3793      16.4421
      36.2363       17.761
      36.0934      19.1856
      35.9504      20.7242
      35.8075       22.386
      35.6645      24.1808
      35.5215      26.1192
      35.3786      28.2126
      35.2356      30.4736
      35.0927      32.9154
      34.9497      35.5524
      34.8068      38.4004
      34.6638       41.476
      34.5209      44.7975
      34.3779      48.3844
      34.2349       52.258
       34.092      56.4412
       33.949      60.9585
      33.8061      65.8366
      33.6631      71.1043
      33.5202      76.7927
      33.3772      82.9353
      33.2343      89.5682
      33.0913      96.7306
      32.9483      104.465
      32.8054      112.816
      32.6624      121.833
      32.5195       131.57
      32.3765      142.083
      32.2336      153.434
      32.0906      165.691
      31.9477      178.925
      31.8047      193.214
      31.6618      208.641
      31.5188      225.298
      31.3758      243.281
      31.2329      262.698
      31.0899      283.661
       30.947      306.293
       30.804      330.727
      30.6611      357.106
      30.5181      385.585
      30.3752      416.331
      30.2322      449.523
      30.0892      485.355
      29.9463      524.039
      29.8033      565.798
      29.6604      610.879
      29.5174      659.543
      29.3745      712.077
      29.2315      768.785
      29.0886      830.001
      28.9456       896.08
      28.8026      967.409
      28.6597       1044.4
      28.5167      1127.51
      28.3738      1217.22
      28.2308      1314.05
      28.0879      1418.57
      27.9449      1531.38
       27.802      1653.15
       27.659      1784.58
       27.516      1926.43
      27.3731      2079.53
      27.2301      2244.77
      27.0872      2423.12
      26.9442      2615.61
      26.8013      2823.35
      26.6583      3047.55
      26.5154      3289.52
      26.3724      3550.66
      26.2294      3832.48
      26.0865      4136.62
      25.9435      4464.85
      25.8006      4819.06
      25.6576      5201.31
      25.5147      5613.81
      25.3717      6058.95
      25.2288       6539.3
      25.0858      7057.66
      24.9428      7617.01
      24.7999      8220.59
      24.6569      8871.89
       24.514      9574.67
       24.371        10333
      24.2281      11151.2
      24.0851      12034.1
      23.9422      12986.8
      23.7992      14014.6
      23.6563      15123.7
      23.5133      16320.3
      23.3703      17611.3
      23.2274      19004.3
      23.0844      20507.1
      22.9415      22128.6
      22.7985      23877.9
      22.6556      25765.2
      22.5126      27801.3
      22.3697        29998
      22.2267      32367.8
      22.0837      34924.3
      21.9408      37682.3
      21.7978      40657.6
      21.6549      43867.2
      21.5119      47329.6
       21.369      51064.7
       21.226      55093.7
      21.0831      59439.9
      20.9401      64128.2
      20.7971      69185.3
      20.6542      74640.2
      20.5112      80524.2
      20.3683      86870.9
      20.2253      93716.6
      20.0824       101100
      19.9394       109065
      19.7965       117655
      19.6535       126919
      19.5105       136912
      19.3676       147689
      19.2246       159313
      19.0817       171849
      18.9387       185369
      18.7958       199950
      18.6528       215676
      18.5099       232634
      18.3669       250923
      18.2239       270646
       18.081       291916
       17.938       314852
      17.7951       339586
      17.6521       366259
      17.5092       395020
      17.3662       426035
      17.2233       459478
      17.0803       495540
      16.9373       534425
      16.7944       576353
      16.6514       621561
      16.5085       670307
      16.3655       722865
      16.2226       779534
      16.0796       840633
      15.9367       906509
      15.7937       977533
      15.6508  1.05411e+06
      15.5078  1.13666e+06
      15.3648  1.22567e+06
      15.2219  1.32162e+06
      15.0789  1.42507e+06
       14.936  1.53659e+06
       14.793  1.65682e+06
      14.6501  1.78643e+06
      14.5071  1.92615e+06
      14.3642  2.07676e+06
      14.2212  2.23913e+06
      14.0782  2.41415e+06
      13.9353  2.60281e+06
      13.7923  2.80618e+06
      13.6494  3.02539e+06
      13.5064  3.26169e+06
      13.3635  3.51638e+06
      13.2205  3.79091e+06
      13.0776  4.08681e+06
      12.9346  4.40574e+06
      12.7916  4.74949e+06
      12.6487  5.11999e+06
      12.5057   5.5193e+06
      12.3628  5.94968e+06
      12.2198  6.41351e+06
      12.0769   6.9134e+06
      11.9339  7.45215e+06
       11.791  8.03275e+06
       11.648  8.65847e+06
       11.505  9.33278e+06
      11.3621  1.00595e+07
      11.2191  1.08425e+07
      11.0762  1.16864e+07
      10.9332  1.25958e+07
      10.7903  1.35757e+07
      10.6473  1.46317e+07
      10.5044  1.57695e+07
      10.3614  1.69955e+07
      10.2184  1.83166e+07
      10.0755  1.97401e+07
      9.93254  2.12739e+07
      9.78958  2.29265e+07
      9.64663  2.47071e+07
      9.50367  2.66256e+07
      9.36072  2.86926e+07
      9.21776  3.09195e+07
      9.07481  3.33188e+07
      8.93185  3.59038e+07
      8.78889  3.86886e+07
      8.64594  4.16888e+07
      8.50298   4.4921e+07
      8.36003  4.84029e+07
      8.21707   5.2154e+07
      8.07412  5.61948e+07
      7.93116  6.05478e+07
      7.78821  6.52369e+07
      7.64525   7.0288e+07
       7.5023   7.5729e+07
      7.35934  8.15899e+07
      7.21639  8.79029e+07
      7.07343  9.47029e+07
      6.93048  1.02027e+08
      6.78752  1.09916e+08
      6.64456  1.18414e+08
      6.50161  1.27565e+08
      6.35865  1.37423e+08
       6.2157  1.48039e+08
      6.07274  1.59473e+08
      5.92979  1.71787e+08
      5.78683  1.85049e+08
      5.64388  1.99331e+08
      5.50092  2.14712e+08
      5.35797  2.31276e+08
      5.21501  2.49114e+08
      5.07206  2.68324e+08
       4.9291  2.89009e+08
      4.78615  3.11284e+08
      4.64319  3.35271e+08
      4.50023  3.61099e+08
      4.35728  3.88911e+08
      4.21432  4.18857e+08
      4.07137  4.51102e+08
      3.92841  4.85821e+08
      3.78546  5.23203e+08
       3.6425  5.63451e+08
      3.49955  6.06786e+08
      3.35659  6.53442e+08
      3.21364  7.03673e+08
      3.07068  7.57752e+08
      2.92773  8.15974e+08
      2.78477  8.78653e+08
      2.64181  9.46131e+08
      2.49886  1.01877e+09
       2.3559  1.09697e+09
      2.21295  1.18116e+09
      2.06999  1.27178e+09
      1.92704  1.36932e+09
      1.78408  1.47433e+09
      1.64113  1.58736e+09
      1.49817  1.70902e+09
      1.35522  1.83998e+09
      1.21226  1.98093e+09
      1.06931  2.13265e+09
     0.926351  2.29594e+09
     0.783395  2.47169e+09
      0.64044  2.66085e+09
     0.497485  2.86443e+09
     0.354529  3.08353e+09
     0.211574  3.31933e+09
    0.0686186   3.5731e+09
   -0.0743368   3.8462e+09
    -0.217292  4.14009e+09
    -0.360247  4.45636e+09
    -0.503203   4.7967e+09
    -0.646158  5.16293e+09
    -0.789114  5.55703e+09
    -0.932069   5.9811e+09
     -1.07502  6.43741e+09
     -1.21798   6.9284e+09
     -1.36093   7.4567e+09
     -1.50389  8.02513e+09
     -1.64685  8.63674e+09
      -1.7898  9.29477e+09
     -1.93276  1.00028e+10
     -2.07571  1.07645e+10
     -2.21867   1.1584e+10
     -2.36162  1.24656e+10
     -2.50458  1.34141e+10
     -2.64753  1.44345e+10
     -2.79049  1.55322e+10
     -2.93344  1.67131e+10
      -3.0764  1.79834e+10
     -3.21935  1.93498e+10
     -3.36231  2.08197e+10
     -3.50527  2.24009e+10
     -3.64822  2.41016e+10
     -3.79118  2.59309e+10
     -3.93413  2.78986e+10
     -4.07709  3.00149e+10
     -4.22004  3.22912e+10
       -4.363  3.47394e+10
     -4.50595  3.73724e+10
     -4.64891  4.02043e+10
     -4.79186  4.32498e+10
     -4.93482  4.65251e+10
     -5.07777  5.00475e+10
     -5.22073  5.38354e+10
     -5.36368  5.79089e+10
     -5.50664  6.22893e+10
      -5.6496  6.69997e+10
     -5.79255  7.20649e+10
     -5.93551  7.75114e+10
     -6.07846  8.33678e+10
     -6.22142  8.96649e+10
     -6.36437  9.64356e+10
     -6.50733  1.03716e+11
     -6.65028  1.11543e+11
     -6.79324  1.19958e+11
     -6.93619  1.29006e+11
     -7.07915  1.38733e+11
      -7.2221   1.4919e+11
     -7.36506  1.60433e+11
     -7.50801  1.72519e+11
     -7.65097  1.85511e+11
     -7.79393  1.99478e+11
     -7.93688  2.14492e+11
     -8.07984  2.30631e+11
     -8.22279  2.47978e+11
     -8.36575  2.66625e+11
      -8.5087  2.86668e+11
     -8.65166  3.08211e+11
     -8.79461  3.31366e+11
     -8.93757  3.56253e+11
     -9.08052     3.83e+11
     -9.22348  4.11747e+11
     -9.36643  4.42642e+11
     -9.50939  4.75844e+11
     -9.65235  5.11525e+11
      -9.7953   5.4987e+11
     -9.93826  5.91077e+11
     -10.0812  6.35357e+11
     -10.2242  6.82939e+11
     -10.3671  7.34068e+11
     -10.5101  7.89009e+11
      -10.653  8.48042e+11
      -10.796  9.11471e+11
     -10.9389  9.79623e+11
     -11.0819  1.05285e+12
     -11.2249  1.13152e+12
     -11.3678  1.21604e+12
     -11.5108  1.30685e+12
     -11.6537  1.40441e+12
     -11.7967  1.50921e+12
     -11.9396   1.6218e+12
     -12.0826  1.74275e+12
     -12.2255  1.87267e+12
     -12.3685  2.01223e+12
     -12.5115  2.16215e+12
     -12.6544  2.32317e+12
     -12.7974  2.49613e+12
     -12.9403  2.68191e+12
     -13.0833  2.88144e+12
     -13.2262  3.09575e+12
     -13.3692  3.32591e+12
     -13.5121  3.57311e+12
     -13.6551  3.83858e+12
     -13.7981  4.12368e+12
      -13.941  4.42985e+12
      -14.084  4.75864e+12
     -14.2269  5.11171e+12
     -14.3699  5.49083e+12
     -14.5128  5.89794e+12
     -14.6558  6.33507e+12
     -14.7987  6.80444e+12
     -14.9417  7.30842e+12
     -15.0846  7.84952e+12
     -15.2276  8.43048e+12
     -15.3706  9.05423e+12
     -15.5135  9.72388e+12
     -15.6565  1.04428e+13
     -15.7994  1.12146e+13
     -15.9424  1.20431e+13
     -16.0853  1.29326e+13
     -16.2283  1.38873e+13
     -16.3712  1.49122e+13
     -16.5142  1.60123e+13
     -16.6572  1.71932e+13
     -16.8001  1.84606e+13
     -16.9431  1.98209e+13
      -17.086   2.1281e+13
      -17.229   2.2848e+13
     -17.3719  2.45298e+13
     -17.5149  2.63346e+13
     -17.6578  2.82715e+13
     -17.8008  3.03502e+13
     -17.9438  3.25808e+13
     -18.0867  3.49744e+13
     -18.2297  3.75428e+13
     -18.3726  4.02989e+13
     -18.5156  4.32561e+13
     -18.6585  4.64291e+13
     -18.8015  4.98334e+13
     -18.9444   5.3486e+13
     -19.0874  5.74049e+13
     -19.2304  6.16092e+13
     -19.3733  6.61197e+13
     -19.5163  7.09585e+13
     -19.6592  7.61495e+13
     -19.8022   8.1718e+13
     -19.9451  8.76912e+13
     -20.0881  9.40985e+13
      -20.231  1.00971e+14
      -20.374  1.08343e+14
      -20.517   1.1625e+14
     -20.6599   1.2473e+14
     -20.8029  1.33825e+14
     -20.9458   1.4358e+14
     -21.0888  1.54041e+14
     -21.2317  1.65259e+14
     -21.3747   1.7729e+14
     -21.5176  1.90191e+14
     -21.6606  2.04024e+14
     -21.8035  2.18858e+14
     -21.9465  2.34763e+14
     -22.0895  2.51818e+14
     -22.2324  2.70104e+14
     -22.3754  2.89709e+14
     -22.5183  3.10728e+14
     -22.6613  3.33262e+14
     -22.8042   3.5742e+14
     -22.9472  3.83318e+14
     -23.0901   4.1108e+14
     -23.2331   4.4084e+14
     -23.3761  4.72742e+14
      -23.519  5.06936e+14
      -23.662  5.43589e+14
     -23.8049  5.82874e+14
     -23.9479  6.24981e+14
     -24.0908  6.70109e+14
     -24.2338  7.18474e+14
     -24.3767  7.70306e+14
     -24.5197  8.25854e+14
     -24.6627  8.85382e+14
     -24.8056  9.49169e+14
     -24.9486  1.01752e+15
     -25.0915  1.09076e+15
     -25.2345  1.16924e+15
     -25.3774  1.25333e+15
     -25.5204  1.34341e+15
     -25.6633  1.43993e+15
     -25.8063  1.54334e+15
     -25.9493  1.65411e+15
     -26.0922  1.77278e+15
     -26.2352  1.89991e+15
     -26.3781  2.03609e+15
     -26.5211  2.18196e+15
      -26.664  2.33821e+15
      -26.807  2.50556e+15
     -26.9499   2.6848e+15
     -27.0929  2.87678e+15
