Temperature = 1301.29K
THERMAL DISTRIBUTIONS:
  E, kcal/mol           W1
      116.926  0.000720354
      116.783  0.000755778
       116.64  0.000792941
      116.497  0.000831927
      116.354  0.000872826
      116.211  0.000915732
      116.068  0.000960743
      115.925   0.00100796
      115.782    0.0010575
      115.639   0.00110946
      115.496   0.00116397
      115.354   0.00122116
      115.211   0.00128114
      115.068   0.00134407
      114.925   0.00141009
      114.782   0.00147934
      114.639   0.00155198
      114.496   0.00162818
      114.353   0.00170812
       114.21   0.00179198
      114.067   0.00187994
      113.924   0.00197221
      113.781     0.002069
      113.638   0.00217053
      113.495   0.00227703
      113.352   0.00238875
      113.209   0.00250593
      113.066   0.00262886
      112.923    0.0027578
       112.78   0.00289305
      112.637   0.00303492
      112.494   0.00318373
      112.351   0.00333982
      112.209   0.00350356
      112.066    0.0036753
      111.923   0.00385544
       111.78   0.00404439
      111.637   0.00424258
      111.494   0.00445047
      111.351   0.00466852
      111.208   0.00489723
      111.065   0.00513712
      110.922   0.00538873
      110.779   0.00565265
      110.636   0.00592946
      110.493   0.00621979
       110.35   0.00652432
      110.207   0.00684372
      110.064   0.00717872
      109.921   0.00753008
      109.778   0.00789861
      109.635   0.00828513
      109.492   0.00869053
      109.349   0.00911572
      109.206   0.00956167
      109.063    0.0100294
      108.921    0.0105199
      108.778    0.0110344
      108.635     0.011574
      108.492    0.0121399
      108.349    0.0127334
      108.206    0.0133559
      108.063    0.0140088
       107.92    0.0146935
      107.777    0.0154115
      107.634    0.0161646
      107.491    0.0169544
      107.348    0.0177828
      107.205    0.0186515
      107.062    0.0195625
      106.919    0.0205179
      106.776    0.0215199
      106.633    0.0225707
       106.49    0.0236728
      106.347    0.0248285
      106.204    0.0260404
      106.061    0.0273115
      105.918    0.0286444
      105.776    0.0300422
      105.633    0.0315081
       105.49    0.0330454
      105.347    0.0346574
      105.204     0.036348
      105.061    0.0381208
      104.918    0.0399799
      104.775    0.0419294
      104.632    0.0439738
      104.489    0.0461177
      104.346    0.0483658
      104.203    0.0507233
       104.06    0.0531954
      103.917    0.0557877
      103.774     0.058506
      103.631    0.0613566
      103.488    0.0643456
      103.345      0.06748
      103.202    0.0707666
      103.059     0.074213
      102.916    0.0778268
      102.773    0.0816162
      102.631    0.0855897
      102.488    0.0897561
      102.345    0.0941249
      102.202    0.0987059
      102.059     0.103509
      101.916     0.108546
      101.773     0.113827
       101.63     0.119364
      101.487      0.12517
      101.344     0.131258
      101.201     0.137642
      101.058     0.144335
      100.915     0.151352
      100.772      0.15871
      100.629     0.166425
      100.486     0.174514
      100.343     0.182996
        100.2     0.191888
      100.057     0.201212
      99.9144     0.210987
      99.7714     0.221236
      99.6284     0.231982
      99.4855     0.243249
      99.3425     0.255061
      99.1996     0.267446
      99.0566     0.280431
      98.9137     0.294044
      98.7707     0.308317
      98.6278     0.323281
      98.4848     0.338969
      98.3418     0.355417
      98.1989     0.372661
      98.0559      0.39074
       97.913     0.409693
        97.77     0.429564
      97.6271     0.450396
      97.4841     0.472235
      97.3412     0.495131
      97.1982     0.519135
      97.0552     0.544299
      96.9123      0.57068
      96.7693     0.598336
      96.6264     0.627329
      96.4834     0.657724
      96.3405     0.689588
      96.1975     0.722991
      96.0546     0.758009
      95.9116     0.794718
      95.7686     0.833201
      95.6257     0.873542
      95.4827     0.915832
      95.3398     0.960163
      95.1968      1.00664
      95.0539      1.05535
      94.9109      1.10642
       94.768      1.15995
       94.625      1.21607
       94.482      1.27489
      94.3391      1.33655
      94.1961      1.40119
      94.0532      1.46894
      93.9102      1.53996
      93.7673      1.61441
      93.6243      1.69245
      93.4814      1.77425
      93.3384      1.85999
      93.1954      1.94987
      93.0525      2.04407
      92.9095      2.14282
      92.7666      2.24632
      92.6236      2.35481
      92.4807      2.46853
      92.3377      2.58773
      92.1948      2.71266
      92.0518      2.84361
      91.9089      2.98087
      91.7659      3.12473
      91.6229      3.27552
        91.48      3.43356
       91.337      3.59921
      91.1941      3.77284
      91.0511      3.95481
      90.9082      4.14554
      90.7652      4.34544
      90.6223      4.55496
      90.4793      4.77455
      90.3363       5.0047
      90.1934      5.24591
      90.0504      5.49872
      89.9075      5.76368
      89.7645      6.04137
      89.6216      6.33241
      89.4786      6.63742
      89.3357      6.95709
      89.1927      7.29211
      89.0497      7.64323
      88.9068       8.0112
      88.7638      8.39684
      88.6209      8.80099
      88.4779      9.22454
       88.335      9.66842
       88.192      10.1336
      88.0491      10.6211
      87.9061       11.132
      87.7631      11.6674
      87.6202      12.2285
      87.4772      12.8164
      87.3343      13.4326
      87.1913      14.0783
      87.0484       14.755
      86.9054      15.4641
      86.7625      16.2072
      86.6195      16.9859
      86.4765      17.8019
      86.3336       18.657
      86.1906      19.5531
      86.0477       20.492
      85.9047       21.476
      85.7618       22.507
      85.6188      23.5874
      85.4759      24.7195
      85.3329      25.9058
        85.19      27.1489
       85.047      28.4515
       84.904      29.8163
      84.7611      31.2465
      84.6181      32.7451
      84.4752      34.3153
      84.3322      35.9606
      84.1893      37.6846
      84.0463      39.4909
      83.9034      41.3836
      83.7604      43.3668
      83.6174      45.4447
      83.4745      47.6219
      83.3315      49.9032
      83.1886      52.2933
      83.0456      54.7976
      82.9027      57.4215
      82.7597      60.1707
      82.6168      63.0511
      82.4738       66.069
      82.3308      69.2309
      82.1879      72.5437
      82.0449      76.0146
       81.902       79.651
       81.759      83.4609
      81.6161      87.4524
      81.4731      91.6343
      81.3302      96.0156
      81.1872      100.606
      81.0442      105.415
      80.9013      110.453
      80.7583      115.731
      80.6154      121.261
      80.4724      127.054
      80.3295      133.123
      80.1865      139.481
      80.0436      146.141
      79.9006      153.119
      79.7576      160.429
      79.6147      168.087
      79.4717       176.11
      79.3288      184.514
      79.1858      193.318
      79.0429       202.54
      78.8999      212.202
       78.757      222.322
       78.614      232.925
       78.471      244.031
      78.3281      255.665
      78.1851      267.852
      78.0422      280.618
      77.8992       293.99
      77.7563      307.998
      77.6133      322.671
      77.4704      338.042
      77.3274      354.142
      77.1845      371.006
      77.0415      388.671
      76.8985      407.174
      76.7556      426.556
      76.6126      446.857
      76.4697      468.122
      76.3267      490.395
      76.1838      513.724
      76.0408       538.16
      75.8979      563.754
      75.7549      590.562
      75.6119      618.641
       75.469       648.05
       75.326      678.853
      75.1831      711.115
      75.0401      744.906
      74.8972      780.297
      74.7542      817.365
      74.6113      856.187
      74.4683      896.848
      74.3253      939.433
      74.1824      984.033
      74.0394      1030.74
      73.8965      1079.67
      73.7535       1130.9
      73.6106      1184.56
      73.4676      1240.76
      73.3247      1299.61
      73.1817      1361.25
      73.0387       1425.8
      72.8958       1493.4
      72.7528       1564.2
      72.6099      1638.34
      72.4669      1715.98
       72.324      1797.29
       72.181      1882.44
      72.0381      1971.61
      71.8951         2065
      71.7521      2162.79
      71.6092      2265.19
      71.4662      2372.43
      71.3233      2484.73
      71.1803      2602.32
      71.0374      2725.46
      70.8944      2854.41
      70.7515      2989.44
      70.6085      3130.84
      70.4655       3278.9
      70.3226      3433.94
      70.1796      3596.28
      70.0367      3766.27
      69.8937      3944.28
      69.7508      4130.66
      69.6078      4325.82
      69.4649      4530.17
      69.3219      4744.15
       69.179      4968.19
       69.036      5202.78
       68.893       5448.4
      68.7501      5705.58
      68.6071      5974.86
      68.4642       6256.8
      68.3212      6552.01
      68.1783      6861.09
      68.0353      7184.69
      67.8924      7523.51
      67.7494      7878.25
      67.6064      8249.66
      67.4635      8638.52
      67.3205      9045.64
      67.1776      9471.88
      67.0346      9918.13
      66.8917      10385.3
      66.7487      10874.5
      66.6058      11386.5
      66.4628      11922.7
      66.3198      12483.9
      66.1769      13071.5
      66.0339      13686.7
       65.891      14330.7
       65.748      15004.9
      65.6051      15710.6
      65.4621      16449.5
      65.3192        17223
      65.1762      18032.7
      65.0332      18880.4
      64.8903      19767.7
      64.7473      20696.7
      64.6044      21669.1
      64.4614        22687
      64.3185      23752.5
      64.1755        24868
      64.0326      26035.6
      63.8896      27257.8
      63.7466      28537.2
      63.6037      29876.4
      63.4607      31278.3
      63.3178      32745.6
      63.1748      34281.6
      63.0319      35889.3
      62.8889      37572.1
       62.746      39333.6
       62.603      41177.3
      62.4601      43107.1
      62.3171        45127
      62.1741      47241.2
      62.0312      49454.1
      61.8882      51770.2
      61.7453      54194.4
      61.6023      56731.7
      61.4594      59387.3
      61.3164      62166.8
      61.1735      65075.8
      61.0305      68120.4
      60.8875        71307
      60.7446        74642
      60.6016      78132.4
      60.4587      81785.3
      60.3157      85608.4
      60.1728      89609.5
      60.0298      93796.9
      59.8869      98179.2
      59.7439       102765
      59.6009       107565
       59.458       112588
       59.315       117844
      59.1721       123345
      59.0291       129102
      58.8862       135127
      58.7432       141431
      58.6003       148028
      58.4573       154932
      58.3143       162157
      58.1714       169717
      58.0284       177628
      57.8855       185906
      57.7425       194569
      57.5996       203634
      57.4566       213119
      57.3137       223044
      57.1707       233430
      57.0277       244297
      56.8848       255668
      56.7418       267567
      56.5989       280017
      56.4559       293043
       56.313       306673
        56.17       320935
      56.0271       335857
      55.8841       351470
      55.7411       367806
      55.5982       384898
      55.4552       402780
      55.3123       421491
      55.1693       441066
      55.0264       461547
      54.8834       482976
      54.7405       505394
      54.5975       528849
      54.4546       553388
      54.3116       579061
      54.1686       605920
      54.0257       634019
      53.8827       663416
      53.7398       694170
      53.5968       726343
      53.4539       760002
      53.3109       795213
       53.168       832049
       53.025       870583
       52.882       910895
      52.7391       953065
      52.5961       997179
      52.4532  1.04333e+06
      52.3102   1.0916e+06
      52.1673   1.1421e+06
      52.0243  1.19492e+06
      51.8814  1.25017e+06
      51.7384  1.30797e+06
      51.5954  1.36843e+06
      51.4525  1.43167e+06
      51.3095  1.49783e+06
      51.1666  1.56702e+06
      51.0236   1.6394e+06
      50.8807   1.7151e+06
      50.7377  1.79429e+06
      50.5948  1.87711e+06
      50.4518  1.96374e+06
      50.3088  2.05435e+06
      50.1659  2.14913e+06
      50.0229  2.24825e+06
        49.88  2.35193e+06
       49.737  2.46037e+06
      49.5941  2.57378e+06
      49.4511   2.6924e+06
      49.3082  2.81646e+06
      49.1652  2.94621e+06
      49.0222  3.08191e+06
      48.8793  3.22383e+06
      48.7363  3.37225e+06
      48.5934  3.52748e+06
      48.4504  3.68982e+06
      48.3075   3.8596e+06
      48.1645  4.03716e+06
      48.0216  4.22284e+06
      47.8786  4.41703e+06
      47.7356   4.6201e+06
      47.5927  4.83246e+06
      47.4497  5.05454e+06
      47.3068  5.28678e+06
      47.1638  5.52964e+06
      47.0209   5.7836e+06
      46.8779  6.04918e+06
       46.735  6.32688e+06
       46.592  6.61728e+06
      46.4491  6.92094e+06
      46.3061  7.23847e+06
      46.1631   7.5705e+06
      46.0202  7.91769e+06
      45.8772  8.28072e+06
      45.7343  8.66032e+06
      45.5913  9.05724e+06
      45.4484  9.47225e+06
      45.3054   9.9062e+06
      45.1625  1.03599e+07
      45.0195  1.08343e+07
      44.8765  1.13304e+07
      44.7336   1.1849e+07
      44.5906  1.23912e+07
      44.4477  1.29582e+07
      44.3047  1.35509e+07
      44.1618  1.41707e+07
      44.0188  1.48186e+07
      43.8759   1.5496e+07
      43.7329  1.62043e+07
      43.5899  1.69447e+07
       43.447  1.77188e+07
       43.304  1.85281e+07
      43.1611  1.93742e+07
      43.0181  2.02587e+07
      42.8752  2.11834e+07
      42.7322  2.21501e+07
      42.5893  2.31606e+07
      42.4463  2.42171e+07
      42.3033  2.53215e+07
      42.1604   2.6476e+07
      42.0174  2.76829e+07
      41.8745  2.89445e+07
      41.7315  3.02633e+07
      41.5886  3.16419e+07
      41.4456  3.30829e+07
      41.3027  3.45893e+07
      41.1597  3.61639e+07
      41.0167  3.78098e+07
      40.8738  3.95302e+07
      40.7308  4.13285e+07
      40.5879  4.32082e+07
      40.4449  4.51729e+07
       40.302  4.72265e+07
       40.159   4.9373e+07
      40.0161  5.16165e+07
      39.8731  5.39614e+07
      39.7302  5.64123e+07
      39.5872  5.89739e+07
      39.4442  6.16512e+07
      39.3013  6.44494e+07
      39.1583   6.7374e+07
      39.0154  7.04305e+07
      38.8724   7.3625e+07
      38.7295  7.69635e+07
      38.5865  8.04527e+07
      38.4436  8.40992e+07
      38.3006    8.791e+07
      38.1576  9.18926e+07
      38.0147  9.60547e+07
      37.8717  1.00404e+08
      37.7288   1.0495e+08
      37.5858    1.097e+08
      37.4429  1.14664e+08
      37.2999  1.19851e+08
       37.157  1.25271e+08
       37.014  1.30936e+08
       36.871  1.36855e+08
      36.7281   1.4304e+08
      36.5851  1.49503e+08
      36.4422  1.56257e+08
      36.2992  1.63314e+08
      36.1563  1.70688e+08
      36.0133  1.78393e+08
      35.8704  1.86444e+08
      35.7274  1.94856e+08
      35.5844  2.03646e+08
      35.4415   2.1283e+08
      35.2985  2.22425e+08
      35.1556  2.32451e+08
      35.0126  2.42926e+08
      34.8697  2.53871e+08
      34.7267  2.65306e+08
      34.5838  2.77252e+08
      34.4408  2.89734e+08
      34.2978  3.02774e+08
      34.1549  3.16398e+08
      34.0119  3.30632e+08
       33.869  3.45501e+08
       33.726  3.61036e+08
      33.5831  3.77265e+08
      33.4401   3.9422e+08
      33.2972  4.11932e+08
      33.1542  4.30435e+08
      33.0112  4.49764e+08
      32.8683  4.69956e+08
      32.7253  4.91049e+08
      32.5824  5.13083e+08
      32.4394    5.361e+08
      32.2965  5.60144e+08
      32.1535  5.85259e+08
      32.0106  6.11494e+08
      31.8676  6.38898e+08
      31.7247  6.67522e+08
      31.5817  6.97421e+08
      31.4387  7.28651e+08
      31.2958  7.61271e+08
      31.1528  7.95342e+08
      31.0099  8.30929e+08
      30.8669  8.68099e+08
       30.724  9.06921e+08
       30.581  9.47468e+08
      30.4381  9.89817e+08
      30.2951  1.03405e+09
      30.1521  1.08024e+09
      30.0092  1.12849e+09
      29.8662  1.17887e+09
      29.7233   1.2315e+09
      29.5803  1.28645e+09
      29.4374  1.34385e+09
      29.2944  1.40378e+09
      29.1515  1.46638e+09
      29.0085  1.53175e+09
      28.8655  1.60001e+09
      28.7226  1.67129e+09
      28.5796  1.74574e+09
      28.4367  1.82347e+09
      28.2937  1.90465e+09
      28.1508  1.98941e+09
      28.0078  2.07793e+09
      27.8649  2.17035e+09
      27.7219  2.26687e+09
      27.5789  2.36764e+09
       27.436  2.47287e+09
       27.293  2.58274e+09
      27.1501  2.69746e+09
      27.0071  2.81725e+09
      26.8642  2.94232e+09
      26.7212   3.0729e+09
      26.5783  3.20924e+09
      26.4353  3.35159e+09
      26.2923  3.50022e+09
      26.1494  3.65539e+09
      26.0064  3.81739e+09
      25.8635  3.98653e+09
      25.7205   4.1631e+09
      25.5776  4.34745e+09
      25.4346   4.5399e+09
      25.2917  4.74082e+09
      25.1487  4.95057e+09
      25.0057  5.16953e+09
      24.8628  5.39812e+09
      24.7198  5.63674e+09
      24.5769  5.88584e+09
      24.4339  6.14586e+09
       24.291   6.4173e+09
       24.148  6.70065e+09
      24.0051  6.99641e+09
      23.8621  7.30515e+09
      23.7192  7.62741e+09
      23.5762  7.96378e+09
      23.4332  8.31489e+09
      23.2903  8.68137e+09
      23.1473  9.06389e+09
      23.0044  9.46314e+09
      22.8614  9.87986e+09
      22.7185  1.03148e+10
      22.5755  1.07687e+10
      22.4326  1.12425e+10
      22.2896   1.1737e+10
      22.1466  1.22531e+10
      22.0037  1.27917e+10
      21.8607  1.33538e+10
      21.7178  1.39404e+10
      21.5748  1.45526e+10
      21.4319  1.51915e+10
      21.2889  1.58582e+10
       21.146   1.6554e+10
       21.003  1.72801e+10
        20.86  1.80378e+10
      20.7171  1.88285e+10
      20.5741  1.96536e+10
      20.4312  2.05146e+10
      20.2882   2.1413e+10
      20.1453  2.23505e+10
      20.0023  2.33287e+10
      19.8594  2.43494e+10
      19.7164  2.54144e+10
      19.5734  2.65256e+10
      19.4305  2.76851e+10
      19.2875  2.88949e+10
      19.1446  3.01571e+10
      19.0016  3.14741e+10
      18.8587  3.28481e+10
      18.7157  3.42816e+10
      18.5728  3.57773e+10
      18.4298  3.73376e+10
      18.2868  3.89656e+10
      18.1439  4.06639e+10
      18.0009  4.24357e+10
       17.858   4.4284e+10
       17.715  4.62123e+10
      17.5721  4.82239e+10
      17.4291  5.03223e+10
      17.2862  5.25113e+10
      17.1432  5.47948e+10
      17.0002  5.71768e+10
      16.8573  5.96615e+10
      16.7143  6.22534e+10
      16.5714  6.49569e+10
      16.4284  6.77769e+10
      16.2855  7.07184e+10
      16.1425  7.37865e+10
      15.9996  7.69866e+10
      15.8566  8.03243e+10
      15.7137  8.38056e+10
      15.5707  8.74366e+10
      15.4277  9.12236e+10
      15.2848  9.51732e+10
      15.1418  9.92925e+10
      14.9989  1.03589e+11
      14.8559  1.08069e+11
       14.713  1.12742e+11
        14.57  1.17614e+11
      14.4271  1.22696e+11
      14.2841  1.27996e+11
      14.1411  1.33522e+11
      13.9982  1.39285e+11
      13.8552  1.45295e+11
      13.7123  1.51562e+11
      13.5693  1.58097e+11
      13.4264  1.64911e+11
      13.2834  1.72017e+11
      13.1405  1.79426e+11
      12.9975  1.87151e+11
      12.8545  1.95206e+11
      12.7116  2.03605e+11
      12.5686  2.12362e+11
      12.4257  2.21492e+11
      12.2827  2.31012e+11
      12.1398  2.40937e+11
      11.9968  2.51284e+11
      11.8539  2.62073e+11
      11.7109   2.7332e+11
      11.5679  2.85045e+11
