Temperature = 298K
THERMAL DISTRIBUTIONS:
  E, kcal/mol           W1
       37.177  3.22095e-34
       37.034   4.0553e-34
      36.8911  5.10572e-34
      36.7481  6.42816e-34
      36.6051  8.09305e-34
      36.4622   1.0189e-33
      36.3192  1.28277e-33
      36.1763  1.61496e-33
      36.0333  2.03314e-33
      35.8904  2.55959e-33
      35.7474  3.22232e-33
      35.6045   4.0566e-33
      35.4615  5.10683e-33
      35.3185  6.42888e-33
      35.1756  8.09311e-33
      35.0326   1.0188e-32
      34.8897  1.28251e-32
      34.7467  1.61446e-32
      34.6038   2.0323e-32
      34.4608  2.55826e-32
      34.3179   3.2203e-32
      34.1749  4.05363e-32
      34.0319  5.10254e-32
       33.889   6.4228e-32
       33.746  8.08458e-32
      33.6031  1.01762e-31
      33.4601  1.28088e-31
      33.3172  1.61224e-31
      33.1742  2.02928e-31
      33.0313  2.55419e-31
      32.8883  3.21483e-31
      32.7454  4.04629e-31
      32.6024  5.09275e-31
      32.4594  6.40978e-31
      32.3165  8.06732e-31
      32.1735  1.01534e-30
      32.0306  1.27787e-30
      31.8876  1.60826e-30
      31.7447  2.02406e-30
      31.6017  2.54733e-30
      31.4588  3.20585e-30
      31.3158  4.03455e-30
      31.1728  5.07741e-30
      31.0299  6.38975e-30
      30.8869  8.04121e-30
       30.744  1.01194e-29
       30.601  1.27345e-29
      30.4581  1.60252e-29
      30.3151  2.01661e-29
      30.1722  2.53767e-29
      30.0292  3.19332e-29
      29.8862  4.01833e-29
      29.7433  5.05643e-29
      29.6003  6.36263e-29
      29.4574  8.00617e-29
      29.3144  1.00741e-28
      29.1715  1.26761e-28
      29.0285  1.59499e-28
      28.8856  2.00691e-28
      28.7426  2.52517e-28
      28.5996  3.17723e-28
      28.4567  3.99762e-28
      28.3137  5.02978e-28
      28.1708  6.32837e-28
      28.0278  7.96214e-28
      27.8849  1.00176e-27
      27.7419  1.26035e-27
       27.599  1.58567e-27
       27.456  1.99494e-27
       27.313  2.50981e-27
      27.1701  3.15754e-27
      27.0271  3.97238e-27
      26.8842  4.99744e-27
      26.7412  6.28693e-27
      26.5983  7.90907e-27
      26.4553  9.94962e-27
      26.3124  1.25165e-26
      26.1694  1.57454e-26
      26.0265   1.9807e-26
      25.8835   2.4916e-26
      25.7405  3.13425e-26
      25.5976  3.94261e-26
      25.4546  4.95939e-26
      25.3117  6.23832e-26
      25.1687  7.84696e-26
      25.0258  9.87029e-26
      24.8828  1.24152e-25
      24.7399  1.56161e-25
      24.5969  1.96419e-25
      24.4539  2.47054e-25
       24.311  3.10737e-25
       24.168  3.90832e-25
      24.0251  4.91565e-25
      23.8821  6.18254e-25
      23.7392  7.77583e-25
      23.5962  9.77962e-25
      23.4533  1.22996e-24
      23.3103  1.54688e-24
      23.1673  1.94542e-24
      23.0244  2.44663e-24
      22.8814  3.07691e-24
      22.7385  3.86952e-24
      22.5955  4.86625e-24
      22.4526  6.11964e-24
      22.3096  7.69576e-24
      22.1667  9.67769e-24
      22.0237  1.21699e-23
      21.8807  1.53037e-23
      21.7378  1.92442e-23
      21.5948   2.4199e-23
      21.4519  3.04291e-23
      21.3089  3.82627e-23
       21.166  4.81124e-23
       21.023  6.04969e-23
      20.8801  7.60681e-23
      20.7371   9.5646e-23
      20.5941  1.20261e-22
      20.4512  1.51209e-22
      20.3082  1.90119e-22
      20.1653  2.39038e-22
      20.0223   3.0054e-22
      19.8794  3.77862e-22
      19.7364   4.7507e-22
      19.5935  5.97277e-22
      19.4505  7.50912e-22
      19.3075  9.44052e-22
      19.1646  1.18685e-21
      19.0216  1.49208e-21
      18.8787  1.87578e-21
      18.7357  2.35812e-21
      18.5928  2.96445e-21
      18.4498  3.72663e-21
      18.3069  4.68471e-21
      18.1639  5.88903e-21
       18.021  7.40284e-21
       17.878  9.30565e-21
       17.735  1.16974e-20
      17.5921  1.47037e-20
      17.4491  1.84824e-20
      17.3062  2.32318e-20
      17.1632  2.92012e-20
      17.0203  3.67041e-20
      16.8773   4.6134e-20
      16.7344  5.79859e-20
      16.5914  7.28815e-20
      16.4484  9.16023e-20
      16.3055   1.1513e-19
      16.1625  1.44699e-19
      16.0196   1.8186e-19
      15.8766  2.28561e-19
      15.7337   2.8725e-19
      15.5907  3.61004e-19
      15.4478  4.53689e-19
      15.3048  5.70163e-19
      15.1618  7.16527e-19
      15.0189  9.00452e-19
      14.8759  1.13157e-18
       14.733  1.42199e-18
        14.59  1.78693e-18
      14.4471  2.24549e-18
      14.3041  2.82168e-18
      14.1612  3.54567e-18
      14.0182  4.45536e-18
      13.8752  5.59836e-18
      13.7323  7.03449e-18
      13.5893  8.83889e-18
      13.4464   1.1106e-17
      13.3034  1.39544e-17
      13.1605   1.7533e-17
      13.0175  2.20291e-17
      12.8746  2.76777e-17
      12.7316  3.47742e-17
      12.5886  4.36896e-17
      12.4457  5.48899e-17
      12.3027  6.89606e-17
      12.1598  8.66368e-17
      12.0168  1.08842e-16
      11.8739  1.36737e-16
      11.7309  1.71778e-16
       11.588  2.15796e-16
       11.445   2.7109e-16
       11.302  3.40546e-16
      11.1591   4.2779e-16
      11.0161  5.37379e-16
      10.8732   6.7503e-16
      10.7302  8.47929e-16
      10.5873   1.0651e-15
      10.4443  1.33786e-15
      10.3014  1.68046e-15
      10.1584  2.11076e-15
      10.0155  2.65119e-15
       9.8725  3.32995e-15
      9.72954  4.18241e-15
      9.58659  5.25303e-15
      9.44363   6.5976e-15
      9.30067   8.2862e-15
      9.15772  1.04068e-14
      9.01476  1.30699e-14
      8.87181  1.64143e-14
      8.72885  2.06141e-14
       8.5859  2.58881e-14
      8.44294  3.25109e-14
      8.29999  4.08272e-14
      8.15703  5.12702e-14
      8.01408  6.43832e-14
      7.87112  8.08487e-14
      7.72817  1.01524e-13
      7.58521  1.27483e-13
      7.44226  1.60079e-13
       7.2993  2.01005e-13
      7.15634   2.5239e-13
      7.01339  3.16907e-13
      6.87043  3.97908e-13
      6.72748  4.99606e-13
      6.58452  6.27286e-13
      6.44157  7.87583e-13
      6.29861  9.88826e-13
      6.15566  1.24147e-12
       6.0127  1.55864e-12
      5.86975  1.95681e-12
      5.72679  2.45665e-12
      5.58384  3.08411e-12
      5.44088  3.87178e-12
      5.29793  4.86054e-12
      5.15497   6.1017e-12
      5.01201  7.65966e-12
      4.86906  9.61526e-12
       4.7261  1.20699e-11
      4.58315   1.5151e-11
      4.44019  1.90183e-11
      4.29724  2.38723e-11
      4.15428  2.99646e-11
      4.01133  3.76111e-11
      3.86837   4.7208e-11
      3.72542  5.92527e-11
      3.58246  7.43693e-11
      3.43951  9.33407e-11
      3.29655   1.1715e-10
      3.15359  1.47029e-10
      3.01064  1.84527e-10
      2.86768  2.31583e-10
      2.72473  2.90634e-10
      2.58177  3.64736e-10
      2.43882  4.57724e-10
      2.29586  5.74408e-10
      2.15291  7.20826e-10
      2.00995  9.04549e-10
        1.867  1.13508e-09
      1.72404  1.42434e-09
      1.58109  1.78728e-09
      1.43813  2.24266e-09
      1.29518  2.81402e-09
      1.15222  3.53088e-09
      1.00926  4.43027e-09
     0.866309  5.55866e-09
     0.723354  6.97433e-09
     0.580399  8.75038e-09
     0.437443  1.09785e-08
     0.294488  1.37738e-08
     0.151533  1.72804e-08
   0.00857732  2.16793e-08
    -0.134378  2.71976e-08
    -0.277333  3.41198e-08
    -0.420289  4.28031e-08
    -0.563244  5.36953e-08
    -0.706199   6.7358e-08
    -0.849155  8.44955e-08
     -0.99211  1.05991e-07
     -1.13507  1.32953e-07
     -1.27802   1.6677e-07
     -1.42098  2.09185e-07
     -1.56393  2.62382e-07
     -1.70689  3.29102e-07
     -1.84984  4.12779e-07
      -1.9928  5.17723e-07
     -2.13575  6.49335e-07
     -2.27871  8.14388e-07
     -2.42166  1.02138e-06
     -2.56462  1.28095e-06
     -2.70757  1.60646e-06
     -2.85053  2.01465e-06
     -2.99348  2.52651e-06
     -3.13644  3.16836e-06
      -3.2794  3.97319e-06
     -3.42235  4.98237e-06
     -3.56531  6.24774e-06
     -3.70826  7.83434e-06
     -3.85122  9.82365e-06
     -3.99417  1.23179e-05
     -4.13713   1.5445e-05
     -4.28008  1.93657e-05
     -4.42304  2.42811e-05
     -4.56599  3.04436e-05
     -4.70895  3.81694e-05
      -4.8519  4.78548e-05
     -4.99486  5.99967e-05
     -5.13782  7.52177e-05
     -5.28077  9.42983e-05
     -5.42373  0.000118217
     -5.56668  0.000148199
     -5.70964  0.000185782
     -5.85259   0.00023289
     -5.99555  0.000291939
      -6.1385   0.00036595
     -6.28146  0.000458717
     -6.42441  0.000574987
     -6.56737  0.000720712
     -6.71032  0.000903353
     -6.85328   0.00113225
     -6.99623   0.00141913
     -7.13919   0.00177865
     -7.28215    0.0022292
      -7.4251   0.00279382
     -7.56806   0.00350139
     -7.71101   0.00438805
     -7.85397   0.00549914
     -7.99692   0.00689141
     -8.13988     0.008636
     -8.28283     0.010822
     -8.42579     0.013561
     -8.56874    0.0169929
      -8.7117    0.0212929
     -8.85465    0.0266804
     -8.99761    0.0334303
     -9.14056     0.041887
     -9.28352    0.0524818
     -9.42648    0.0657549
     -9.56943    0.0823831
     -9.71239     0.103214
     -9.85534     0.129309
      -9.9983     0.161998
     -10.1413     0.202947
     -10.2842      0.25424
     -10.4272      0.31849
     -10.5701     0.398969
     -10.7131     0.499773
      -10.856     0.626031
      -10.999     0.784169
     -11.1419     0.982232
     -11.2849      1.23029
     -11.4279      1.54096
     -11.5708      1.93004
     -11.7138      2.41731
     -11.8567      3.02752
     -11.9997      3.79167
     -12.1426       4.7486
     -12.2856       5.9469
     -12.4285       7.4474
     -12.5715      9.32629
     -12.7144      11.6789
     -12.8574      14.6247
     -13.0004       18.313
     -13.1433       22.931
     -13.2863      28.7129
     -13.4292      35.9517
     -13.5722      45.0145
     -13.7151      56.3605
     -13.8581      70.5645
      -14.001      88.3462
      -14.144      110.606
      -14.287      138.471
     -14.4299      173.352
     -14.5729      217.014
     -14.7158      271.667
     -14.8588      340.075
     -15.0017        425.7
     -15.1447      532.869
     -15.2876      667.002
     -15.4306      834.879
     -15.5736      1044.98
     -15.7165      1307.93
     -15.8595      1636.99
     -16.0024       2048.8
     -16.1454      2564.15
     -16.2883      3209.03
     -16.4313      4016.01
     -16.5742      5025.78
     -16.7172       6289.3
     -16.8602      7870.26
     -17.0031      9848.38
     -17.1461      12323.4
      -17.289      15419.9
      -17.432      19294.1
     -17.5749        24141
     -17.7179      30204.8
     -17.8608      37790.6
     -18.0038      47280.4
     -18.1468      59151.6
     -18.2897      74001.6
     -18.4327      92577.1
     -18.5756       115812
     -18.7186       144875
     -18.8615       181227
     -19.0045       226693
     -19.1474       283560
     -19.2904       354681
     -19.4333       443629
     -19.5763       554870
     -19.7193       693985
     -19.8622       867955
     -20.0052  1.08551e+06
     -20.1481  1.35755e+06
     -20.2911  1.69773e+06
      -20.434  2.12309e+06
      -20.577  2.65495e+06
     -20.7199  3.31995e+06
     -20.8629  4.15141e+06
     -21.0059  5.19095e+06
     -21.1488  6.49062e+06
     -21.2918  8.11545e+06
     -21.4347  1.01467e+07
     -21.5777  1.26861e+07
     -21.7206  1.58606e+07
     -21.8636  1.98288e+07
     -22.0065  2.47891e+07
     -22.1495  3.09894e+07
     -22.2925  3.87394e+07
     -22.4354  4.84262e+07
     -22.5784  6.05335e+07
     -22.7213  7.56655e+07
     -22.8643  9.45774e+07
     -23.0072  1.18213e+08
     -23.1502   1.4775e+08
     -23.2931  1.84663e+08
     -23.4361  2.30791e+08
     -23.5791  2.88432e+08
      -23.722   3.6046e+08
      -23.865  4.50462e+08
     -24.0079   5.6292e+08
     -24.1509  7.03431e+08
     -24.2938  8.78989e+08
     -24.4368  1.09833e+09
     -24.5797  1.37236e+09
     -24.7227  1.71471e+09
     -24.8657   2.1424e+09
     -25.0086  2.67669e+09
     -25.1516  3.34411e+09
     -25.2945  4.17783e+09
     -25.4375  5.21922e+09
     -25.5804  6.51999e+09
     -25.7234  8.14471e+09
     -25.8663   1.0174e+10
     -26.0093  1.27084e+10
     -26.1523  1.58737e+10
     -26.2952  1.98267e+10
     -26.4382  2.47634e+10
     -26.5811  3.09283e+10
     -26.7241  3.86268e+10
      -26.867  4.82399e+10
       -27.01  6.02435e+10
     -27.1529  7.52315e+10
     -27.2959  9.39453e+10
     -27.4388   1.1731e+11
     -27.5818  1.46482e+11
     -27.7248  1.82902e+11
     -27.8677  2.28369e+11
     -28.0107  2.85131e+11
     -28.1536  3.55989e+11
     -28.2966  4.44441e+11
     -28.4395  5.54853e+11
     -28.5825   6.9267e+11
     -28.7254   8.6469e+11
     -28.8684   1.0794e+12
     -29.0114  1.34737e+12
     -29.1543  1.68181e+12
     -29.2973   2.0992e+12
     -29.4402  2.62008e+12
     -29.5832   3.2701e+12
     -29.7261  4.08123e+12
     -29.8691  5.09337e+12
      -30.012  6.35632e+12
      -30.155  7.93214e+12
      -30.298  9.89826e+12
     -30.4409  1.23513e+13
     -30.5839  1.54117e+13
     -30.7268  1.92298e+13
     -30.8698   2.3993e+13
     -31.0127  2.99348e+13
     -31.1557  3.73468e+13
     -31.2986  4.65924e+13
     -31.4416  5.81247e+13
     -31.5846  7.25087e+13
     -31.7275  9.04489e+13
     -31.8705  1.12824e+14
     -32.0134   1.4073e+14
     -32.1564  1.75531e+14
     -32.2993  2.18931e+14
     -32.4423  2.73051e+14
     -32.5852  3.40538e+14
     -32.7282  4.24688e+14
     -32.8712  5.29612e+14
     -33.0141  6.60436e+14
     -33.1571  8.23548e+14
        -33.3   1.0269e+15
      -33.443  1.28042e+15
     -33.5859  1.59647e+15
     -33.7289  1.99046e+15
     -33.8718  2.48157e+15
     -34.0148  3.09374e+15
     -34.1578  3.85675e+15
     -34.3007  4.80777e+15
     -34.4437  5.99306e+15
     -34.5866  7.47024e+15
     -34.7296  9.31116e+15
     -34.8725  1.16053e+16
     -35.0155  1.44642e+16
     -35.1584  1.80266e+16
     -35.3014  2.24655e+16
     -35.4443  2.79962e+16
     -35.5873  3.48872e+16
     -35.7303  4.34725e+16
     -35.8732  5.41681e+16
     -36.0162  6.74925e+16
     -36.1591  8.40917e+16
     -36.3021  1.04769e+17
      -36.445  1.30525e+17
      -36.588  1.62607e+17
     -36.7309  2.02566e+17
     -36.8739  2.52335e+17
     -37.0169  3.14318e+17
     -37.1598  3.91508e+17
     -37.3028  4.87637e+17
     -37.4457  6.07345e+17
     -37.5887  7.56404e+17
     -37.7316  9.42009e+17
     -37.8746   1.1731e+18
     -38.0175  1.46083e+18
     -38.1605  1.81906e+18
     -38.3035  2.26501e+18
     -38.4464  2.82014e+18
     -38.5894   3.5112e+18
     -38.7323   4.3714e+18
     -38.8753  5.44207e+18
     -39.0182  6.77467e+18
     -39.1612  8.43326e+18
     -39.3041  1.04975e+19
     -39.4471  1.30663e+19
     -39.5901   1.6263e+19
      -39.733  2.02409e+19
      -39.876  2.51906e+19
     -40.0189  3.13493e+19
     -40.1619  3.90116e+19
     -40.3048  4.85445e+19
     -40.4478  6.04047e+19
     -40.5907  7.51591e+19
     -40.7337  9.35129e+19
     -40.8767  1.16343e+20
     -41.0196  1.44742e+20
     -41.1626  1.80065e+20
     -41.3055  2.23996e+20
     -41.4485   2.7863e+20
     -41.5914  3.46576e+20
     -41.7344  4.31073e+20
     -41.8773   5.3614e+20
     -42.0203  6.66789e+20
     -42.1633  8.29227e+20
     -42.3062   1.0312e+21
     -42.4492   1.2823e+21
     -42.5921  1.59444e+21
     -42.7351  1.98245e+21
      -42.878  2.46479e+21
      -43.021  3.06431e+21
     -43.1639  3.80943e+21
     -43.3069  4.73549e+21
     -43.4498  5.88642e+21
     -43.5928  7.31678e+21
     -43.7358  9.09414e+21
     -43.8787  1.13027e+22
     -44.0217  1.40468e+22
     -44.1646  1.74563e+22
     -44.3076  2.16921e+22
     -44.4505  2.69542e+22
     -44.5935  3.34909e+22
     -44.7364  4.16114e+22
     -44.8794  5.16981e+22
     -45.0224  6.42264e+22
     -45.1653  7.97867e+22
     -45.3083  9.91127e+22
     -45.4512  1.23114e+23
     -45.5942  1.52918e+23
     -45.7371  1.89924e+23
     -45.8801  2.35877e+23
      -46.023  2.92933e+23
      -46.166  3.63767e+23
      -46.309  4.51708e+23
     -46.4519  5.60871e+23
     -46.5949  6.96391e+23
     -46.7378  8.64597e+23
     -46.8808  1.07336e+24
     -47.0237  1.33243e+24
     -47.1667  1.65395e+24
     -47.3096  2.05292e+24
     -47.4526  2.54795e+24
     -47.5956  3.16216e+24
     -47.7385  3.92427e+24
     -47.8815  4.86983e+24
     -48.0244  6.04276e+24
     -48.1674   7.4978e+24
     -48.3103  9.30261e+24
     -48.4533  1.15412e+25
     -48.5962  1.43175e+25
     -48.7392  1.77604e+25
     -48.8822  2.20298e+25
     -49.0251  2.73247e+25
     -49.1681    3.389e+25
      -49.311  4.20301e+25
      -49.454  5.21224e+25
     -49.5969  6.46356e+25
     -49.7399  8.01482e+25
     -49.8828  9.93762e+25
     -50.0258  1.23208e+26
     -50.1687  1.52748e+26
     -50.3117  1.89358e+26
     -50.4547  2.34725e+26
     -50.5976  2.90945e+26
     -50.7406  3.60606e+26
     -50.8835   4.4693e+26
     -51.0265  5.53867e+26
     -51.1694   6.8634e+26
     -51.3124  8.50421e+26
     -51.4553  1.05367e+27
     -51.5983   1.3054e+27
     -51.7413  1.61711e+27
     -51.8842   2.0031e+27
     -52.0272  2.48119e+27
     -52.1701  3.07315e+27
     -52.3131  3.80597e+27
      -52.456  4.71334e+27
      -52.599  5.83652e+27
     -52.7419  7.22683e+27
     -52.8849  8.94772e+27
     -53.0279  1.10773e+28
     -53.1708  1.37126e+28
     -53.3138  1.69748e+28
     -53.4567  2.10109e+28
     -53.5997  2.60049e+28
     -53.7426  3.21841e+28
     -53.8856  3.98303e+28
     -54.0285  4.92897e+28
     -54.1715    6.099e+28
     -54.3145  7.54607e+28
     -54.4574  9.33607e+28
     -54.6004  1.15498e+29
     -54.7433  1.42869e+29
     -54.8863  1.76717e+29
     -55.0292  2.18568e+29
     -55.1722  2.70319e+29
     -55.3151  3.34284e+29
     -55.4581   4.1335e+29
     -55.6011  5.11052e+29
      -55.744  6.31807e+29
      -55.887   7.8103e+29
     -56.0299  9.65354e+29
     -56.1729  1.19307e+30
     -56.3158  1.47454e+30
     -56.4588  1.82219e+30
     -56.6017  2.25153e+30
     -56.7447  2.78198e+30
     -56.8877    3.437e+30
     -57.0306  4.24586e+30
     -57.1736  5.24475e+30
     -57.3165   6.4777e+30
     -57.4595   7.9998e+30
     -57.6024  9.87985e+30
     -57.7454  1.21997e+31
     -57.8883  1.50634e+31
     -58.0313  1.85982e+31
     -58.1742   2.2962e+31
     -58.3172  2.83477e+31
     -58.4602  3.49924e+31
     -58.6031  4.31889e+31
     -58.7461  5.33043e+31
      -58.889  6.57816e+31
      -59.032  8.11655e+31
     -59.1749  1.00142e+32
     -59.3179   1.2355e+32
     -59.4608  1.52418e+32
     -59.6038  1.88002e+32
     -59.7468  2.31881e+32
     -59.8897  2.85934e+32
     -60.0327  3.52573e+32
     -60.1756  4.34708e+32
     -60.3186  5.35831e+32
     -60.4615  6.60422e+32
     -60.6045  8.14089e+32
     -60.7474  1.00328e+33
     -60.8904  1.23625e+33
     -61.0334  1.52337e+33
     -61.1763  1.87679e+33
     -61.3193  2.31203e+33
     -61.4622    2.848e+33
     -61.6052  3.50738e+33
     -61.7481  4.31926e+33
     -61.8911  5.31939e+33
      -62.034  6.54906e+33
      -62.177    8.063e+33
       -62.32  9.92591e+33
     -62.4629  1.22195e+34
     -62.6059  1.50428e+34
     -62.7488  1.85149e+34
     -62.8918  2.27839e+34
     -63.0347  2.80397e+34
     -63.1777  3.45013e+34
     -63.3206  4.24387e+34
     -63.4636  5.22018e+34
     -63.6066  6.42118e+34
     -63.7495  7.89732e+34
     -63.8925  9.71122e+34
     -64.0354  1.19413e+35
     -64.1784   1.4677e+35
     -64.3213  1.80399e+35
     -64.4643  2.21719e+35
     -64.6072  2.72352e+35
     -64.7502  3.34541e+35
     -64.8932  4.11069e+35
     -65.0361  5.04843e+35
     -65.1791  6.19944e+35
      -65.322   7.6132e+35
      -65.465  9.34648e+35
     -65.6079  1.14745e+36
     -65.7509  1.40859e+36
     -65.8938  1.72843e+36
     -66.0368  2.12117e+36
     -66.1797  2.60333e+36
     -66.3227  3.19338e+36
     -66.4657  3.91762e+36
     -66.6086  4.80531e+36
     -66.7516  5.89474e+36
     -66.8945   7.2319e+36
     -67.0375  8.86985e+36
     -67.1804  1.08743e+37
     -67.3234  1.33373e+37
     -67.4663  1.63511e+37
     -67.6093  2.00339e+37
     -67.7523  2.45496e+37
     -67.8952  3.00859e+37
     -68.0382  3.68564e+37
     -68.1811  4.51462e+37
