Temperature = 850.341K
THERMAL DISTRIBUTIONS:
  E, kcal/mol           W1
      81.0814  6.93965e-09
      80.9385  7.48766e-09
      80.7955   8.0789e-09
      80.6525  8.71676e-09
      80.5096  9.40493e-09
      80.3666  1.01474e-08
      80.2237  1.09483e-08
      80.0807  1.18125e-08
      79.9378  1.27447e-08
      79.7948  1.37505e-08
      79.6519  1.48355e-08
      79.5089   1.6006e-08
      79.3659  1.72688e-08
       79.223   1.8631e-08
        79.08  2.01007e-08
      78.9371  2.16861e-08
      78.7941  2.33964e-08
      78.6512  2.52414e-08
      78.5082  2.72317e-08
      78.3653  2.93789e-08
      78.2223   3.1695e-08
      78.0794  3.41936e-08
      77.9364  3.68889e-08
      77.7934  3.97965e-08
      77.6505  4.29329e-08
      77.5075  4.63162e-08
      77.3646  4.99657e-08
      77.2216  5.39026e-08
      77.0787  5.81492e-08
      76.9357    6.273e-08
      76.7928  6.76712e-08
      76.6498  7.30011e-08
      76.5068  7.87504e-08
      76.3639  8.49518e-08
      76.2209   9.1641e-08
       76.078  9.88563e-08
       75.935  1.06639e-07
      75.7921  1.15034e-07
      75.6491  1.24088e-07
      75.5062  1.33855e-07
      75.3632  1.44389e-07
      75.2202  1.55751e-07
      75.0773  1.68006e-07
      74.9343  1.81225e-07
      74.7914  1.95482e-07
      74.6484  2.10859e-07
      74.5055  2.27444e-07
      74.3625  2.45333e-07
      74.2196  2.64626e-07
      74.0766  2.85435e-07
      73.9336  3.07878e-07
      73.7907  3.32083e-07
      73.6477  3.58189e-07
      73.5048  3.86345e-07
      73.3618  4.16711e-07
      73.2189  4.49461e-07
      73.0759  4.84781e-07
       72.933  5.22874e-07
        72.79  5.63956e-07
       72.647  6.08261e-07
      72.5041  6.56043e-07
      72.3611  7.07573e-07
      72.2182  7.63146e-07
      72.0752  8.23078e-07
      71.9323  8.87711e-07
      71.7893  9.57412e-07
      71.6464  1.03258e-06
      71.5034  1.11364e-06
      71.3605  1.20106e-06
      71.2175  1.29532e-06
      71.0745  1.39698e-06
      70.9316  1.50661e-06
      70.7886  1.62483e-06
      70.6457  1.75231e-06
      70.5027  1.88978e-06
      70.3598  2.03802e-06
      70.2168  2.19788e-06
      70.0739  2.37025e-06
      69.9309  2.55613e-06
      69.7879  2.75657e-06
       69.645   2.9727e-06
       69.502  3.20575e-06
      69.3591  3.45705e-06
      69.2161  3.72803e-06
      69.0732  4.02022e-06
      68.9302  4.33527e-06
      68.7873  4.67499e-06
      68.6443  5.04129e-06
      68.5013  5.43625e-06
      68.3584  5.86211e-06
      68.2154  6.32129e-06
      68.0725  6.81639e-06
      67.9295  7.35021e-06
      67.7866  7.92579e-06
      67.6436  8.54637e-06
      67.5007  9.21548e-06
      67.3577   9.9369e-06
      67.2147  1.07147e-05
      67.0718  1.15533e-05
      66.9288  1.24575e-05
      66.7859  1.34324e-05
      66.6429  1.44834e-05
         66.5  1.56165e-05
       66.357  1.68382e-05
      66.2141  1.81553e-05
      66.0711  1.95753e-05
      65.9281  2.11062e-05
      65.7852  2.27566e-05
      65.6422   2.4536e-05
      65.4993  2.64543e-05
      65.3563  2.85223e-05
      65.2134  3.07518e-05
      65.0704  3.31553e-05
      64.9275  3.57464e-05
      64.7845  3.85397e-05
      64.6415   4.1551e-05
      64.4986  4.47972e-05
      64.3556  4.82967e-05
      64.2127  5.20692e-05
      64.0697   5.6136e-05
      63.9268  6.05199e-05
      63.7838  6.52457e-05
      63.6409    7.034e-05
      63.4979  7.58314e-05
       63.355   8.1751e-05
       63.212   8.8132e-05
       63.069  9.50104e-05
      62.9261  0.000102425
      62.7831  0.000110417
      62.6402  0.000119032
      62.4972  0.000128318
      62.3543  0.000138328
      62.2113  0.000149117
      62.0684  0.000160746
      61.9254  0.000173281
      61.7824  0.000186793
      61.6395  0.000201356
      61.4965  0.000217053
      61.3536  0.000233971
      61.2106  0.000252207
      61.0677  0.000271862
      60.9247  0.000293046
      60.7818  0.000315879
      60.6388  0.000340488
      60.4958  0.000367011
      60.3529  0.000395597
      60.2099  0.000426407
       60.067  0.000459612
       59.924    0.0004954
      59.7811   0.00053397
      59.6381  0.000575538
      59.4952  0.000620337
      59.3522  0.000668619
      59.2092  0.000720652
      59.0663  0.000776729
      58.9233  0.000837162
      58.7804  0.000902291
      58.6374  0.000972478
      58.4945   0.00104812
      58.3515   0.00112963
      58.2086   0.00121747
      58.0656   0.00131214
      57.9226   0.00141415
      57.7797   0.00152408
      57.6367   0.00164254
      57.4938    0.0017702
      57.3508   0.00190777
      57.2079     0.002056
      57.0649   0.00221574
       56.922   0.00238787
       56.779   0.00257335
       56.636   0.00277322
      56.4931   0.00298858
      56.3501   0.00322065
      56.2072    0.0034707
      56.0642   0.00374014
      55.9213   0.00403046
      55.7783   0.00434328
      55.6354   0.00468035
      55.4924   0.00504353
      55.3495   0.00543485
      55.2065   0.00585648
      55.0635   0.00631077
      54.9206   0.00680024
      54.7776   0.00732762
      54.6347   0.00789583
      54.4917   0.00850803
      54.3488   0.00916762
      54.2058   0.00987827
      54.0629    0.0106439
      53.9199    0.0114688
      53.7769    0.0123575
       53.634     0.013315
       53.491    0.0143465
      53.3481    0.0154578
      53.2051    0.0166551
      53.0622    0.0179449
      52.9192    0.0193345
      52.7763    0.0208315
      52.6333    0.0224442
      52.4903    0.0241816
      52.3474    0.0260532
      52.2044    0.0280695
      52.0615    0.0302415
      51.9185    0.0325813
      51.7756    0.0351018
      51.6326    0.0378171
      51.4897     0.040742
      51.3467    0.0438927
      51.2037    0.0472867
      51.0608    0.0509427
      50.9178    0.0548809
      50.7749     0.059123
      50.6319    0.0636924
       50.489    0.0686144
       50.346    0.0739162
      50.2031    0.0796269
      50.0601     0.085778
      49.9171    0.0924035
      49.7742    0.0995399
      49.6312     0.107227
      49.4883     0.115506
      49.3453     0.124423
      49.2024     0.134028
      49.0594     0.144372
      48.9165     0.155514
      48.7735     0.167514
      48.6305     0.180438
      48.4876     0.194358
      48.3446      0.20935
      48.2017     0.225496
      48.0587     0.242886
      47.9158     0.261614
      47.7728     0.281783
      47.6299     0.303505
      47.4869     0.326898
       47.344     0.352091
       47.201     0.379223
       47.058     0.408441
      46.9151     0.439906
      46.7721     0.473792
      46.6292     0.510282
      46.4862     0.549578
      46.3433     0.591895
      46.2003     0.637464
      46.0574     0.686535
      45.9144     0.739377
      45.7714     0.796278
      45.6285     0.857551
      45.4855      0.92353
      45.3426     0.994576
      45.1996      1.07108
      45.0567      1.15345
      44.9137      1.24215
      44.7708      1.33766
      44.6278       1.4405
      44.4848      1.55123
      44.3419      1.67045
      44.1989      1.79882
       44.056      1.93704
       43.913      2.08586
      43.7701      2.24609
      43.6271      2.41861
      43.4842      2.60435
      43.3412      2.80433
      43.1982      3.01964
      43.0553      3.25144
      42.9123      3.50101
      42.7694       3.7697
      42.6264      4.05897
      42.4835      4.37039
      42.3405      4.70567
      42.1976      5.06661
      42.0546      5.45519
      41.9116      5.87351
      41.7687      6.32385
      41.6257      6.80866
      41.4828      7.33055
      41.3398      7.89238
      41.1969      8.49718
      41.0539      9.14823
       40.911      9.84908
       40.768      10.6035
      40.6251      11.4156
      40.4821      12.2898
      40.3391      13.2308
      40.1962      14.2437
      40.0532       15.334
      39.9103      16.5076
      39.7673      17.7708
      39.6244      19.1305
      39.4814      20.5941
      39.3385      22.1694
      39.1955      23.8649
      39.0525      25.6899
      38.9096      27.6541
      38.7666      29.7682
      38.6237      32.0437
      38.4807      34.4927
      38.3378      37.1285
      38.1948      39.9653
      38.0519      43.0184
      37.9089      46.3043
      37.7659      49.8406
       37.623      53.6465
        37.48      57.7424
      37.3371      62.1504
      37.1941      66.8942
      37.0512      71.9993
      36.9082      77.4933
      36.7653      83.4056
      36.6223       89.768
      36.4793      96.6148
      36.3364      103.983
      36.1934      111.911
      36.0505      120.443
      35.9075      129.624
      35.7646      139.504
      35.6216      150.134
      35.4787      161.574
      35.3357      173.883
      35.1927      187.127
      35.0498      201.379
      34.9068      216.713
      34.7639      233.213
      34.6209      250.966
       34.478      270.068
       34.335       290.62
      34.1921      312.733
      34.0491      336.526
      33.9061      362.124
      33.7632      389.665
      33.6202      419.297
      33.4773      451.176
      33.3343      485.475
      33.1914      522.375
      33.0484      562.073
      32.9055      604.782
      32.7625       650.73
      32.6196       700.16
      32.4766      753.336
      32.3336      810.543
      32.1907      872.084
      32.0477      938.287
      31.9048       1009.5
      31.7618      1086.12
      31.6189      1168.53
      31.4759      1257.18
       31.333      1352.54
        31.19      1455.12
       31.047      1565.46
      30.9041      1684.15
      30.7611      1811.82
      30.6182      1949.14
      30.4752      2096.85
      30.3323      2255.73
      30.1893      2426.62
      30.0464      2610.42
      29.9034      2808.11
      29.7604      3020.74
      29.6175      3249.44
      29.4745       3495.4
      29.3316      3759.95
      29.1886      4044.47
      29.0457      4350.46
      28.9027      4679.56
      28.7598      5033.49
      28.6168      5414.13
      28.4738      5823.48
      28.3309      6263.71
      28.1879      6737.14
       28.045      7246.28
       27.902      7793.79
      27.7591      8382.58
      27.6161      9015.74
      27.4732      9696.61
      27.3302      10428.8
      27.1872      11216.1
      27.0443      12062.7
      26.9013      12973.1
      26.7584        13952
      26.6154      15004.6
      26.4725      16136.4
      26.3295      17353.4
      26.1866      18661.9
      26.0436      20068.8
      25.9006      21581.6
      25.7577      23208.1
      25.6147      24956.9
      25.4718      26837.2
      25.3288      28858.8
      25.1859      31032.2
      25.0429        33369
         24.9      35881.2
       24.757      38582.2
      24.6141      41485.9
      24.4711      44607.7
      24.3281      47963.7
      24.1852      51571.6
      24.0422      55450.2
      23.8993      59619.7
      23.7563        64102
      23.6134      68920.5
      23.4704      74100.1
      23.3275      79668.1
      23.1845      85653.4
      23.0415      92087.2
      22.8986        99003
      22.7556       106437
      22.6127       114427
      22.4697       123016
      22.3268       132248
      22.1838       142171
      22.0409       152837
      21.8979       164300
      21.7549       176621
       21.612       189864
       21.469       204097
      21.3261       219394
      21.1831       235834
      21.0402       253503
      20.8972       272493
      20.7543       292901
      20.6113       314833
      20.4683       338403
      20.3254       363733
      20.1824       390954
      20.0395       420207
      19.8965       451642
      19.7536       485423
      19.6106       521723
      19.4677       560731
      19.3247       602647
      19.1817       647688
      19.0388       696085
      18.8958       748090
      18.7529       803968
      18.6099       864009
       18.467       928521
       18.324       997837
      18.1811  1.07231e+06
      18.0381  1.15233e+06
      17.8952  1.23831e+06
      17.7522  1.33067e+06
      17.6092  1.42991e+06
      17.4663  1.53653e+06
      17.3233  1.65108e+06
      17.1804  1.77415e+06
      17.0374  1.90635e+06
      16.8945  2.04839e+06
      16.7515  2.20097e+06
      16.6086  2.36489e+06
      16.4656  2.54098e+06
      16.3226  2.73014e+06
      16.1797  2.93335e+06
      16.0367  3.15163e+06
      15.8938  3.38612e+06
      15.7508  3.63799e+06
      15.6079  3.90855e+06
      15.4649  4.19917e+06
       15.322  4.51134e+06
       15.179  4.84664e+06
       15.036  5.20679e+06
      14.8931  5.59362e+06
      14.7501  6.00911e+06
      14.6072  6.45537e+06
      14.4642  6.93466e+06
      14.3213  7.44944e+06
      14.1783  8.00232e+06
      14.0354   8.5961e+06
      13.8924  9.23382e+06
      13.7494  9.91869e+06
      13.6065  1.06542e+07
      13.4635  1.14441e+07
      13.3206  1.22924e+07
      13.1776  1.32034e+07
      13.0347  1.41816e+07
      12.8917  1.52321e+07
      12.7488  1.63602e+07
      12.6058  1.75716e+07
      12.4628  1.88724e+07
      12.3199  2.02692e+07
      12.1769  2.17691e+07
       12.034  2.33796e+07
       11.891  2.51089e+07
      11.7481  2.69656e+07
      11.6051  2.89593e+07
      11.4622  3.10998e+07
      11.3192  3.33981e+07
      11.1762  3.58657e+07
      11.0333   3.8515e+07
      10.8903  4.13594e+07
      10.7474  4.44132e+07
      10.6044  4.76918e+07
      10.4615  5.12115e+07
      10.3185  5.49903e+07
      10.1756  5.90469e+07
      10.0326  6.34018e+07
      9.88965  6.80768e+07
       9.7467  7.30954e+07
      9.60374  7.84828e+07
      9.46078   8.4266e+07
      9.31783  9.04739e+07
      9.17487  9.71376e+07
      9.03192   1.0429e+08
      8.88896  1.11968e+08
      8.74601  1.20209e+08
      8.60305  1.29055e+08
       8.4601   1.3855e+08
      8.31714   1.4874e+08
      8.17419  1.59678e+08
      8.03123  1.71417e+08
      7.88828  1.84016e+08
      7.74532  1.97538e+08
      7.60237  2.12051e+08
      7.45941  2.27626e+08
      7.31645  2.44341e+08
       7.1735  2.62279e+08
      7.03054  2.81529e+08
      6.88759  3.02188e+08
      6.74463  3.24357e+08
      6.60168  3.48147e+08
      6.45872  3.73675e+08
      6.31577  4.01069e+08
      6.17281  4.30465e+08
      6.02986  4.62007e+08
       5.8869  4.95852e+08
      5.74395  5.32168e+08
      5.60099  5.71134e+08
      5.45804  6.12943e+08
      5.31508  6.57802e+08
      5.17212  7.05932e+08
      5.02917  7.57571e+08
      4.88621  8.12973e+08
      4.74326  8.72413e+08
       4.6003  9.36183e+08
      4.45735   1.0046e+09
      4.31439  1.07799e+09
      4.17144  1.15673e+09
      4.02848   1.2412e+09
      3.88553  1.33181e+09
      3.74257  1.42901e+09
      3.59962  1.53329e+09
      3.45666  1.64514e+09
       3.3137  1.76512e+09
      3.17075  1.89382e+09
      3.02779  2.03186e+09
      2.88484  2.17994e+09
      2.74188  2.33876e+09
      2.59893  2.50911e+09
      2.45597  2.69182e+09
      2.31302  2.88778e+09
      2.17006  3.09796e+09
      2.02711  3.32337e+09
      1.88415  3.56513e+09
       1.7412   3.8244e+09
      1.59824  4.10246e+09
      1.45529  4.40065e+09
      1.31233  4.72043e+09
      1.16937  5.06336e+09
      1.02642  5.43111e+09
     0.883464  5.82546e+09
     0.740509  6.24834e+09
     0.597553  6.70178e+09
     0.454598  7.18801e+09
     0.311643  7.70937e+09
     0.168687  8.26839e+09
     0.025732  8.86779e+09
    -0.117223  9.51046e+09
    -0.260179  1.01995e+10
    -0.403134  1.09383e+10
    -0.546089  1.17304e+10
    -0.689045  1.25796e+10
       -0.832    1.349e+10
    -0.974955  1.44661e+10
     -1.11791  1.55125e+10
     -1.26087  1.66343e+10
     -1.40382  1.78368e+10
     -1.54678  1.91259e+10
     -1.68973  2.05079e+10
     -1.83269  2.19892e+10
     -1.97564  2.35771e+10
      -2.1186  2.52792e+10
     -2.26155  2.71037e+10
     -2.40451  2.90592e+10
     -2.54746  3.11553e+10
     -2.69042   3.3402e+10
     -2.83337  3.58099e+10
     -2.97633  3.83908e+10
     -3.11929  4.11568e+10
     -3.26224  4.41212e+10
      -3.4052  4.72983e+10
     -3.54815  5.07031e+10
     -3.69111   5.4352e+10
     -3.83406  5.82624e+10
     -3.97702  6.24528e+10
     -4.11997  6.69432e+10
     -4.26293  7.17552e+10
     -4.40588  7.69115e+10
     -4.54884  8.24367e+10
     -4.69179   8.8357e+10
     -4.83475  9.47006e+10
     -4.97771  1.01498e+11
     -5.12066   1.0878e+11
     -5.26362  1.16583e+11
     -5.40657  1.24943e+11
     -5.54953    1.339e+11
     -5.69248  1.43496e+11
     -5.83544  1.53777e+11
     -5.97839  1.64791e+11
     -6.12135   1.7659e+11
      -6.2643   1.8923e+11
     -6.40726   2.0277e+11
     -6.55021  2.17275e+11
     -6.69317  2.32813e+11
     -6.83612  2.49457e+11
     -6.97908  2.67285e+11
     -7.12204  2.86381e+11
     -7.26499  3.06836e+11
     -7.40795  3.28744e+11
      -7.5509  3.52209e+11
     -7.69386  3.77341e+11
     -7.83681  4.04258e+11
     -7.97977  4.33086e+11
     -8.12272   4.6396e+11
     -8.26568  4.97023e+11
     -8.40863  5.32432e+11
     -8.55159  5.70351e+11
     -8.69454  6.10957e+11
      -8.8375   6.5444e+11
     -8.98045  7.01002e+11
     -9.12341  7.50861e+11
     -9.26637  8.04249e+11
     -9.40932  8.61414e+11
     -9.55228  9.22622e+11
     -9.69523  9.88158e+11
     -9.83819  1.05832e+12
     -9.98114  1.13345e+12
     -10.1241  1.21388e+12
     -10.2671  1.29999e+12
       -10.41  1.39217e+12
      -10.553  1.49086e+12
     -10.6959  1.59652e+12
     -10.8389  1.70962e+12
     -10.9818  1.83069e+12
     -11.1248  1.96029e+12
     -11.2677  2.09902e+12
     -11.4107  2.24751e+12
     -11.5537  2.40646e+12
     -11.6966  2.57659e+12
     -11.8396  2.75868e+12
     -11.9825  2.95358e+12
     -12.1255  3.16217e+12
     -12.2684  3.38541e+12
     -12.4114  3.62433e+12
     -12.5543  3.88002e+12
     -12.6973  4.15365e+12
     -12.8402  4.44647e+12
     -12.9832  4.75983e+12
     -13.1262  5.09515e+12
     -13.2691  5.45396e+12
     -13.4121  5.83789e+12
      -13.555  6.24872e+12
      -13.698  6.68829e+12
     -13.8409  7.15861e+12
     -13.9839  7.66182e+12
     -14.1268  8.20021e+12
     -14.2698  8.77621e+12
     -14.4128  9.39245e+12
     -14.5557  1.00517e+13
     -14.6987   1.0757e+13
     -14.8416  1.15115e+13
     -14.9846  1.23186e+13
     -15.1275   1.3182e+13
     -15.2705  1.41055e+13
     -15.4134  1.50934e+13
     -15.5564  1.61501e+13
     -15.6994  1.72803e+13
     -15.8423  1.84891e+13
     -15.9853  1.97821e+13
     -16.1282  2.11649e+13
     -16.2712  2.26438e+13
     -16.4141  2.42255e+13
     -16.5571  2.59169e+13
        -16.7  2.77258e+13
      -16.843  2.96601e+13
      -16.986  3.17286e+13
     -17.1289  3.39404e+13
     -17.2719  3.63055e+13
     -17.4148  3.88344e+13
     -17.5578  4.15384e+13
     -17.7007  4.44295e+13
     -17.8437  4.75206e+13
     -17.9866  5.08255e+13
     -18.1296  5.43587e+13
     -18.2726   5.8136e+13
     -18.4155  6.21742e+13
     -18.5585  6.64911e+13
     -18.7014  7.11058e+13
     -18.8444  7.60387e+13
     -18.9873  8.13118e+13
     -19.1303  8.69483e+13
     -19.2732   9.2973e+13
     -19.4162  9.94125e+13
     -19.5592  1.06295e+14
     -19.7021  1.13652e+14
     -19.8451  1.21513e+14
      -19.988  1.29916e+14
      -20.131  1.38895e+14
     -20.2739  1.48491e+14
     -20.4169  1.58746e+14
     -20.5598  1.69705e+14
     -20.7028  1.81414e+14
     -20.8457  1.93927e+14
     -20.9887  2.07296e+14
     -21.1317  2.21581e+14
     -21.2746  2.36843e+14
     -21.4176   2.5315e+14
     -21.5605  2.70571e+14
     -21.7035  2.89183e+14
     -21.8464  3.09067e+14
     -21.9894  3.30308e+14
     -22.1323     3.53e+14
     -22.2753  3.77239e+14
     -22.4183  4.03131e+14
     -22.5612  4.30788e+14
     -22.7042  4.60329e+14
     -22.8471  4.91881e+14
     -22.9901   5.2558e+14
      -23.133  5.61571e+14
      -23.276  6.00009e+14
     -23.4189  6.41061e+14
     -23.5619  6.84901e+14
     -23.7049  7.31717e+14
     -23.8478  7.81711e+14
     -23.9908  8.35097e+14
     -24.1337  8.92102e+14
     -24.2767  9.52968e+14
