Temperature = 1663.84K
THERMAL DISTRIBUTIONS:
  E, kcal/mol           W1
      145.743     0.105245
        145.6     0.109186
      145.457     0.113273
      145.314     0.117513
      145.171     0.121912
      145.028     0.126474
      144.885     0.131207
      144.742     0.136117
      144.599     0.141209
      144.456     0.146492
      144.313     0.151972
       144.17     0.157656
      144.028     0.163552
      143.885     0.169669
      143.742     0.176013
      143.599     0.182594
      143.456      0.18942
      143.313     0.196501
       143.17     0.203846
      143.027     0.211464
      142.884     0.219366
      142.741     0.227563
      142.598     0.236066
      142.455     0.244885
      142.312     0.254032
      142.169     0.263521
      142.026     0.273363
      141.883     0.283571
       141.74      0.29416
      141.597     0.305143
      141.454     0.316534
      141.311      0.32835
      141.168     0.340606
      141.025     0.353318
      140.882     0.366503
       140.74     0.380178
      140.597     0.394362
      140.454     0.409075
      140.311     0.424334
      140.168     0.440161
      140.025     0.456577
      139.882     0.473603
      139.739     0.491262
      139.596     0.509578
      139.453     0.528574
       139.31     0.548277
      139.167     0.568713
      139.024     0.589907
      138.881      0.61189
      138.738     0.634689
      138.595     0.658335
      138.452     0.682859
      138.309     0.708295
      138.166     0.734675
      138.023     0.762035
       137.88     0.790411
      137.737      0.81984
      137.595     0.850362
      137.452     0.882018
      137.309     0.914848
      137.166     0.948896
      137.023     0.984208
       136.88      1.02083
      136.737      1.05881
      136.594       1.0982
      136.451      1.13905
      136.308      1.18142
      136.165      1.22535
      136.022      1.27092
      135.879      1.31818
      135.736      1.36718
      135.593      1.41801
       135.45      1.47072
      135.307      1.52538
      135.164      1.58207
      135.021      1.64085
      134.878      1.70182
      134.735      1.76504
      134.592      1.83061
       134.45       1.8986
      134.307      1.96911
      134.164      2.04224
      134.021      2.11807
      133.878       2.1967
      133.735      2.27825
      133.592      2.36282
      133.449      2.45051
      133.306      2.54145
      133.163      2.63576
       133.02      2.73355
      132.877      2.83496
      132.734      2.94012
      132.591      3.04917
      132.448      3.16226
      132.305      3.27952
      132.162      3.40112
      132.019      3.52722
      131.876      3.65797
      131.733      3.79356
       131.59      3.93416
      131.447      4.07995
      131.304      4.23113
      131.162      4.38789
      131.019      4.55044
      130.876        4.719
      130.733      4.89378
       130.59      5.07502
      130.447      5.26294
      130.304       5.4578
      130.161      5.65986
      130.018      5.86937
      129.875      6.08661
      129.732      6.31187
      129.589      6.54544
      129.446      6.78762
      129.303      7.03874
       129.16      7.29912
      129.017       7.5691
      128.874      7.84904
      128.731      8.13929
      128.588      8.44025
      128.445       8.7523
      128.302      9.07585
      128.159      9.41132
      128.017      9.75915
      127.874      10.1198
      127.731      10.4937
      127.588      10.8814
      127.445      11.2834
      127.302      11.7002
      127.159      12.1323
      127.016      12.5804
      126.873      13.0449
       126.73      13.5265
      126.587      14.0259
      126.444      14.5436
      126.301      15.0804
      126.158      15.6369
      126.015      16.2139
      125.872      16.8121
      125.729      17.4324
      125.586      18.0754
      125.443      18.7421
        125.3      19.4332
      125.157      20.1498
      125.014      20.8927
      124.871       21.663
      124.729      22.4615
      124.586      23.2893
      124.443      24.1476
        124.3      25.0374
      124.157      25.9599
      124.014      26.9162
      123.871      27.9077
      123.728      28.9356
      123.585      30.0012
      123.442      31.1059
      123.299      32.2511
      123.156      33.4384
      123.013      34.6692
       122.87      35.9452
      122.727       37.268
      122.584      38.6393
      122.441      40.0609
      122.298      41.5347
      122.155      43.0624
      122.012      44.6462
      121.869       46.288
      121.726        47.99
      121.584      49.7544
      121.441      51.5834
      121.298      53.4794
      121.155      55.4448
      121.012      57.4823
      120.869      59.5944
      120.726      61.7838
      120.583      64.0533
       120.44       66.406
      120.297      68.8448
      120.154      71.3728
      120.011      73.9933
      119.868      76.7098
      119.725      79.5256
      119.582      82.4444
      119.439      85.4699
      119.296      88.6061
      119.153       91.857
       119.01      95.2268
      118.867      98.7197
      118.724       102.34
      118.581      106.093
      118.439      109.983
      118.296      114.016
      118.153      118.195
       118.01      122.527
      117.867      127.018
      117.724      131.672
      117.581      136.496
      117.438      141.497
      117.295       146.68
      117.152      152.052
      117.009       157.62
      116.866      163.392
      116.723      169.374
       116.58      175.574
      116.437      182.001
      116.294      188.662
      116.151      195.565
      116.008      202.721
      115.865      210.137
      115.722      217.824
      115.579      225.791
      115.436      234.048
      115.293      242.606
      115.151      251.476
      115.008      260.668
      114.865      270.196
      114.722      280.071
      114.579      290.305
      114.436      300.912
      114.293      311.905
       114.15      323.299
      114.007      335.106
      113.864      347.344
      113.721      360.027
      113.578      373.171
      113.435      386.793
      113.292      400.911
      113.149      415.542
      113.006      430.705
      112.863      446.419
       112.72      462.705
      112.577      479.582
      112.434      497.073
      112.291        515.2
      112.148      533.984
      112.006      553.452
      111.863      573.626
       111.72      594.533
      111.577      616.199
      111.434      638.651
      111.291      661.919
      111.148      686.031
      111.005      711.018
      110.862      736.912
      110.719      763.745
      110.576      791.551
      110.433      820.366
       110.29      850.227
      110.147      881.169
      110.004      913.234
      109.861      946.461
      109.718      980.892
      109.575      1016.57
      109.432      1053.54
      109.289      1091.85
      109.146      1131.55
      109.003      1172.69
       108.86      1215.32
      108.718      1259.49
      108.575      1305.26
      108.432      1352.68
      108.289      1401.82
      108.146      1452.74
      108.003      1505.51
       107.86      1560.18
      107.717      1616.83
      107.574      1675.53
      107.431      1736.35
      107.288      1799.37
      107.145      1864.67
      107.002      1932.33
      106.859      2002.43
      106.716      2075.07
      106.573      2150.33
       106.43      2228.31
      106.287      2309.11
      106.144      2392.82
      106.001      2479.56
      105.858      2569.43
      105.715      2662.55
      105.573      2759.02
       105.43      2858.98
      105.287      2962.54
      105.144      3069.84
      105.001      3181.01
      104.858      3296.19
      104.715      3415.53
      104.572      3539.16
      104.429      3667.26
      104.286      3799.97
      104.143      3937.46
          104      4079.91
      103.857       4227.5
      103.714      4380.39
      103.571       4538.8
      103.428      4702.91
      103.285      4872.93
      103.142      5049.07
      102.999      5231.55
      102.856       5420.6
      102.713      5616.45
       102.57      5819.35
      102.428      6029.55
      102.285      6247.31
      102.142      6472.91
      101.999      6706.61
      101.856      6948.72
      101.713      7199.53
       101.57      7459.36
      101.427      7728.52
      101.284      8007.35
      101.141      8296.21
      100.998      8595.44
      100.855      8905.41
      100.712      9226.52
      100.569      9559.16
      100.426      9903.73
      100.283      10260.7
       100.14      10630.4
      99.9973      11013.5
      99.8543      11410.2
      99.7114      11821.2
      99.5684        12247
      99.4254        12688
      99.2825      13144.8
      99.1395        13618
      98.9966      14108.1
      98.8536      14615.9
      98.7107      15141.8
      98.5677      15686.5
      98.4248      16250.8
      98.2818      16835.3
      98.1388      17440.7
      97.9959      18067.8
      97.8529      18717.3
        97.71      19390.1
       97.567      20086.9
      97.4241      20808.7
      97.2811      21556.4
      97.1382      22330.7
      96.9952      23132.8
      96.8522      23963.5
      96.7093      24823.9
      96.5663      25715.1
      96.4234      26638.2
      96.2804      27594.2
      96.1375      28584.4
      95.9945      29609.9
      95.8516      30672.1
      95.7086      31772.3
      95.5656      32911.7
      95.4227      34091.7
      95.2797      35313.9
      95.1368      36579.8
      94.9938      37890.8
      94.8509      39248.5
      94.7079      40654.7
       94.565      42111.1
       94.422      43619.4
      94.2791      45181.4
      94.1361      46799.2
      93.9931      48474.6
      93.8502      50209.7
      93.7072      52006.6
      93.5643      53867.5
      93.4213      55794.8
      93.2784      57790.6
      93.1354      59857.6
      92.9925      61998.1
      92.8495      64214.8
      92.7065      66510.4
      92.5636      68887.6
      92.4206      71349.5
      92.2777      73898.9
      92.1347        76539
      91.9918      79272.9
      91.8488      82104.1
      91.7059      85035.9
      91.5629      88071.9
      91.4199      91215.8
       91.277      94471.4
       91.134      97842.6
      90.9911       101334
      90.8481       104948
      90.7052       108692
      90.5622       112568
      90.4193       116582
      90.2763       120738
      90.1333       125041
      89.9904       129498
      89.8474       134112
      89.7045       138890
      89.5615       143837
      89.4186       148960
      89.2756       154264
      89.1327       159757
      88.9897       165443
      88.8467       171332
      88.7038       177429
      88.5608       183741
      88.4179       190278
      88.2749       197045
       88.132       204052
       87.989       211308
      87.8461       218819
      87.7031       226597
      87.5602       234650
      87.4172       242987
      87.2742       251619
      87.1313       260556
      86.9883       269809
      86.8454       279390
      86.7024       289308
      86.5595       299577
      86.4165       310209
      86.2736       321216
      86.1306       332611
      85.9876       344409
      85.8447       356624
      85.7017       369269
      85.5588       382360
      85.4158       395913
      85.2729       409944
      85.1299       424470
       84.987       439508
       84.844       455076
       84.701       471193
      84.5581       487877
      84.4151       505149
      84.2722       523030
      84.1292       541540
      83.9863       560702
      83.8433       580538
      83.7004       601073
      83.5574       622330
      83.4144       644335
      83.2715       667114
      83.1285       690694
      82.9856       715103
      82.8426       740370
      82.6997       766526
      82.5567       793600
      82.4138       821626
      82.2708       850636
      82.1278       880666
      81.9849       911749
      81.8419       943925
       81.699       977229
       81.556   1.0117e+06
      81.4131  1.04739e+06
      81.2701  1.08432e+06
      81.1272  1.12255e+06
      80.9842  1.16212e+06
      80.8412  1.20308e+06
      80.6983  1.24547e+06
      80.5553  1.28935e+06
      80.4124  1.33477e+06
      80.2694  1.38178e+06
      80.1265  1.43044e+06
      79.9835   1.4808e+06
      79.8406  1.53292e+06
      79.6976  1.58687e+06
      79.5547   1.6427e+06
      79.4117  1.70049e+06
      79.2687   1.7603e+06
      79.1258  1.82221e+06
      78.9828  1.88628e+06
      78.8399  1.95259e+06
      78.6969  2.02121e+06
       78.554  2.09224e+06
       78.411  2.16575e+06
      78.2681  2.24183e+06
      78.1251  2.32056e+06
      77.9821  2.40204e+06
      77.8392  2.48637e+06
      77.6962  2.57365e+06
      77.5533  2.66397e+06
      77.4103  2.75744e+06
      77.2674  2.85417e+06
      77.1244  2.95428e+06
      76.9815  3.05787e+06
      76.8385  3.16509e+06
      76.6955  3.27603e+06
      76.5526  3.39085e+06
      76.4096  3.50967e+06
      76.2667  3.63262e+06
      76.1237  3.75986e+06
      75.9808  3.89153e+06
      75.8378  4.02779e+06
      75.6949  4.16879e+06
      75.5519  4.31469e+06
      75.4089  4.46568e+06
       75.266  4.62191e+06
       75.123  4.78358e+06
      74.9801  4.95088e+06
      74.8371  5.12399e+06
      74.6942  5.30312e+06
      74.5512  5.48847e+06
      74.4083  5.68027e+06
      74.2653  5.87872e+06
      74.1223  6.08407e+06
      73.9794  6.29656e+06
      73.8364  6.51642e+06
      73.6935  6.74391e+06
      73.5505  6.97929e+06
      73.4076  7.22285e+06
      73.2646  7.47485e+06
      73.1217  7.73559e+06
      72.9787  8.00538e+06
      72.8357  8.28451e+06
      72.6928  8.57332e+06
      72.5498  8.87214e+06
      72.4069  9.18132e+06
      72.2639   9.5012e+06
       72.121  9.83216e+06
       71.978  1.01746e+07
      71.8351  1.05289e+07
      71.6921  1.08954e+07
      71.5492  1.12746e+07
      71.4062  1.16669e+07
      71.2632  1.20728e+07
      71.1203  1.24928e+07
      70.9773  1.29272e+07
      70.8344  1.33767e+07
      70.6914  1.38417e+07
      70.5485  1.43228e+07
      70.4055  1.48205e+07
      70.2626  1.53354e+07
      70.1196   1.5868e+07
      69.9766  1.64191e+07
      69.8337  1.69891e+07
      69.6907  1.75789e+07
      69.5478  1.81889e+07
      69.4048    1.882e+07
      69.2619  1.94729e+07
      69.1189  2.01483e+07
       68.976   2.0847e+07
       68.833  2.15697e+07
        68.69  2.23173e+07
      68.5471  2.30907e+07
      68.4041  2.38907e+07
      68.2612  2.47183e+07
      68.1182  2.55743e+07
      67.9753  2.64598e+07
      67.8323  2.73758e+07
      67.6894  2.83232e+07
      67.5464  2.93033e+07
      67.4034   3.0317e+07
      67.2605  3.13656e+07
      67.1175  3.24502e+07
      66.9746  3.35721e+07
      66.8316  3.47325e+07
      66.6887  3.59328e+07
      66.5457  3.71743e+07
      66.4028  3.84584e+07
      66.2598  3.97866e+07
      66.1168  4.11603e+07
      65.9739  4.25812e+07
      65.8309  4.40507e+07
       65.688  4.55707e+07
       65.545  4.71428e+07
      65.4021  4.87687e+07
      65.2591  5.04504e+07
      65.1162  5.21897e+07
      64.9732  5.39885e+07
      64.8302  5.58489e+07
      64.6873   5.7773e+07
      64.5443  5.97629e+07
      64.4014  6.18209e+07
      64.2584  6.39494e+07
      64.1155  6.61506e+07
      63.9725   6.8427e+07
      63.8296  7.07813e+07
      63.6866   7.3216e+07
      63.5437   7.5734e+07
      63.4007  7.83379e+07
      63.2577  8.10307e+07
      63.1148  8.38155e+07
      62.9718  8.66953e+07
      62.8289  8.96734e+07
      62.6859  9.27531e+07
       62.543  9.59379e+07
         62.4  9.92312e+07
      62.2571  1.02637e+08
      62.1141  1.06159e+08
      61.9711    1.098e+08
      61.8282  1.13566e+08
      61.6852   1.1746e+08
      61.5423  1.21487e+08
      61.3993   1.2565e+08
      61.2564  1.29956e+08
      61.1134  1.34407e+08
      60.9705  1.39011e+08
      60.8275  1.43771e+08
      60.6845  1.48692e+08
      60.5416  1.53781e+08
      60.3986  1.59043e+08
      60.2557  1.64484e+08
      60.1127  1.70109e+08
      59.9698  1.75926e+08
      59.8268   1.8194e+08
      59.6839  1.88158e+08
      59.5409  1.94587e+08
      59.3979  2.01234e+08
       59.255  2.08107e+08
       59.112  2.15212e+08
      58.9691  2.22559e+08
      58.8261  2.30154e+08
      58.6832  2.38007e+08
      58.5402  2.46126e+08
      58.3973  2.54519e+08
      58.2543  2.63197e+08
      58.1113  2.72169e+08
      57.9684  2.81444e+08
      57.8254  2.91033e+08
      57.6825  3.00946e+08
      57.5395  3.11194e+08
      57.3966  3.21789e+08
      57.2536  3.32742e+08
      57.1107  3.44064e+08
      56.9677   3.5577e+08
      56.8248   3.6787e+08
      56.6818  3.80379e+08
      56.5388   3.9331e+08
      56.3959  4.06677e+08
      56.2529  4.20496e+08
        56.11   4.3478e+08
       55.967  4.49546e+08
      55.8241  4.64809e+08
      55.6811  4.80587e+08
      55.5382  4.96897e+08
      55.3952  5.13755e+08
      55.2522  5.31181e+08
      55.1093  5.49194e+08
      54.9663  5.67813e+08
      54.8234  5.87058e+08
      54.6804  6.06951e+08
      54.5375  6.27512e+08
      54.3945  6.48765e+08
      54.2516  6.70731e+08
      54.1086  6.93436e+08
      53.9656  7.16903e+08
      53.8227  7.41159e+08
      53.6797  7.66228e+08
      53.5368  7.92139e+08
      53.3938  8.18919e+08
      53.2509  8.46597e+08
      53.1079  8.75204e+08
       52.965  9.04769e+08
       52.822  9.35325e+08
       52.679  9.66905e+08
      52.5361  9.99543e+08
      52.3931  1.03327e+09
      52.2502  1.06813e+09
      52.1072  1.10416e+09
      51.9643  1.14139e+09
      51.8213  1.17987e+09
      51.6784  1.21963e+09
      51.5354  1.26073e+09
      51.3924  1.30319e+09
      51.2495  1.34708e+09
      51.1065  1.39243e+09
      50.9636  1.43929e+09
      50.8206  1.48772e+09
      50.6777  1.53777e+09
      50.5347  1.58948e+09
      50.3918  1.64292e+09
      50.2488  1.69815e+09
      50.1058  1.75521e+09
      49.9629  1.81417e+09
      49.8199   1.8751e+09
       49.677  1.93806e+09
       49.534  2.00312e+09
      49.3911  2.07034e+09
      49.2481  2.13979e+09
      49.1052  2.21156e+09
      48.9622  2.28571e+09
      48.8193  2.36233e+09
      48.6763   2.4415e+09
      48.5333   2.5233e+09
      48.3904  2.60781e+09
      48.2474  2.69513e+09
      48.1045  2.78535e+09
      47.9615  2.87856e+09
      47.8186  2.97487e+09
      47.6756  3.07437e+09
      47.5327  3.17717e+09
      47.3897  3.28338e+09
      47.2467   3.3931e+09
      47.1038  3.50646e+09
      46.9608  3.62358e+09
      46.8179  3.74457e+09
      46.6749  3.86957e+09
       46.532  3.99871e+09
       46.389  4.13211e+09
      46.2461  4.26993e+09
      46.1031   4.4123e+09
      45.9601  4.55938e+09
      45.8172  4.71132e+09
      45.6742  4.86828e+09
      45.5313  5.03041e+09
      45.3883   5.1979e+09
      45.2454  5.37092e+09
      45.1024  5.54965e+09
      44.9595  5.73426e+09
      44.8165  5.92497e+09
      44.6735  6.12196e+09
      44.5306  6.32544e+09
      44.3876  6.53562e+09
      44.2447  6.75272e+09
      44.1017  6.97697e+09
      43.9588  7.20859e+09
      43.8158  7.44784e+09
      43.6729  7.69495e+09
      43.5299  7.95019e+09
      43.3869  8.21381e+09
       43.244   8.4861e+09
       43.101  8.76732e+09
      42.9581  9.05778e+09
      42.8151  9.35778e+09
      42.6722  9.66761e+09
      42.5292  9.98761e+09
      42.3863  1.03181e+10
      42.2433  1.06594e+10
      42.1003  1.10119e+10
      41.9574   1.1376e+10
      41.8144   1.1752e+10
      41.6715  1.21403e+10
      41.5285  1.25413e+10
      41.3856  1.29554e+10
      41.2426   1.3383e+10
      41.0997  1.38247e+10
      40.9567  1.42807e+10
      40.8138  1.47517e+10
      40.6708   1.5238e+10
      40.5278  1.57403e+10
      40.3849  1.62589e+10
