Temperature = 1622.26K
THERMAL DISTRIBUTIONS:
  E, kcal/mol           W1
      142.438      0.07361
      142.295    0.0764444
      142.152    0.0793876
      142.009    0.0824438
      141.866    0.0856173
      141.723    0.0889127
       141.58    0.0923346
      141.437    0.0958879
      141.294    0.0995775
      141.151     0.103409
      141.008     0.107387
      140.865     0.111518
      140.722     0.115807
      140.579     0.120261
      140.436     0.124886
      140.294     0.129688
      140.151     0.134674
      140.008     0.139852
      139.865     0.145228
      139.722      0.15081
      139.579     0.156606
      139.436     0.162624
      139.293     0.168873
       139.15     0.175361
      139.007     0.182098
      138.864     0.189093
      138.721     0.196356
      138.578     0.203897
      138.435     0.211727
      138.292     0.219857
      138.149     0.228299
      138.006     0.237063
      137.863     0.246163
       137.72     0.255612
      137.577     0.265422
      137.434     0.275607
      137.291     0.286183
      137.149     0.297163
      137.006     0.308563
      136.863     0.320399
       136.72     0.332688
      136.577     0.345447
      136.434     0.358694
      136.291     0.372448
      136.148     0.386727
      136.005     0.401553
      135.862     0.416945
      135.719     0.432926
      135.576     0.449517
      135.433     0.466743
       135.29     0.484627
      135.147     0.503194
      135.004      0.52247
      134.861     0.542483
      134.718      0.56326
      134.575     0.584831
      134.432     0.607225
      134.289     0.630475
      134.146     0.654612
      134.003     0.679671
      133.861     0.705686
      133.718     0.732695
      133.575     0.760734
      133.432     0.789842
      133.289     0.820062
      133.146     0.851434
      133.003     0.884004
       132.86     0.917815
      132.717     0.952916
      132.574     0.989356
      132.431      1.02718
      132.288      1.06646
      132.145      1.10722
      132.002      1.14955
      131.859      1.19348
      131.716      1.23909
      131.573      1.28644
       131.43      1.33559
      131.287      1.38662
      131.144      1.43958
      131.001      1.49457
      130.858      1.55165
      130.716       1.6109
      130.573      1.67241
       130.43      1.73626
      130.287      1.80254
      130.144      1.87135
      130.001      1.94277
      129.858      2.01691
      129.715      2.09387
      129.572      2.17376
      129.429      2.25669
      129.286      2.34277
      129.143      2.43213
          129      2.52489
      128.857      2.62117
      128.714      2.72111
      128.571      2.82485
      128.428      2.93254
      128.285      3.04432
      128.142      3.16034
      127.999      3.28078
      127.856      3.40579
      127.713      3.53555
       127.57      3.67024
      127.428      3.81004
      127.285      3.95515
      127.142      4.10578
      126.999      4.26212
      126.856       4.4244
      126.713      4.59284
       126.57      4.76767
      126.427      4.94913
      126.284      5.13748
      126.141      5.33298
      125.998       5.5359
      125.855      5.74651
      125.712      5.96511
      125.569        6.192
      125.426      6.42749
      125.283      6.67191
       125.14       6.9256
      124.997       7.1889
      124.854      7.46219
      124.711      7.74583
      124.568      8.04021
      124.425      8.34576
      124.283      8.66287
       124.14        8.992
      123.997       9.3336
      123.854      9.68813
      123.711      10.0561
      123.568       10.438
      123.425      10.8343
      123.282      11.2457
      123.139      11.6726
      122.996      12.1156
      122.853      12.5755
       122.71      13.0527
      122.567       13.548
      122.424       14.062
      122.281      14.5955
      122.138      15.1491
      121.995      15.7237
      121.852        16.32
      121.709      16.9388
      121.566       17.581
      121.423      18.2475
       121.28      18.9392
      121.138       19.657
      120.995      20.4019
      120.852       21.175
      120.709      21.9773
      120.566      22.8098
      120.423      23.6738
       120.28      24.5705
      120.137      25.5009
      119.994      26.4665
      119.851      27.4686
      119.708      28.5084
      119.565      29.5875
      119.422      30.7073
      119.279      31.8694
      119.136      33.0753
      118.993      34.3266
       118.85      35.6252
      118.707      36.9727
      118.564       38.371
      118.421       39.822
      118.278      41.3277
      118.135      42.8901
      117.992      44.5115
       117.85      46.1939
      117.707      47.9397
      117.564      49.7512
      117.421       51.631
      117.278      53.5816
      117.135      55.6056
      116.992      57.7058
      116.849       59.885
      116.706      62.1463
      116.563      64.4927
       116.42      66.9274
      116.277      69.4537
      116.134       72.075
      115.991      74.7949
      115.848      77.6171
      115.705      80.5455
      115.562      83.5839
      115.419      86.7366
      115.276      90.0078
      115.133       93.402
       114.99      96.9237
      114.847      100.578
      114.705      104.369
      114.562      108.303
      114.419      112.384
      114.276      116.619
      114.133      121.013
       113.99      125.572
      113.847      130.302
      113.704      135.209
      113.561      140.301
      113.418      145.583
      113.275      151.064
      113.132      156.751
      112.989      162.651
      112.846      168.772
      112.703      175.123
       112.56      181.712
      112.417      188.547
      112.274       195.64
      112.131      202.998
      111.988      210.631
      111.845      218.551
      111.702      226.768
      111.559      235.292
      111.417      244.136
      111.274       253.31
      111.131      262.829
      110.988      272.704
      110.845      282.948
      110.702      293.576
      110.559      304.602
      110.416       316.04
      110.273      327.907
       110.13      340.217
      109.987      352.988
      109.844      366.236
      109.701       379.98
      109.558      394.238
      109.415      409.029
      109.272      424.373
      109.129       440.29
      108.986      456.802
      108.843      473.931
        108.7        491.7
      108.557      510.133
      108.414      529.255
      108.272       549.09
      108.129      569.666
      107.986      591.011
      107.843      613.152
        107.7      636.119
      107.557      659.944
      107.414      684.658
      107.271      710.293
      107.128      736.885
      106.985      764.469
      106.842      793.082
      106.699      822.762
      106.556      853.548
      106.413      885.482
       106.27      918.606
      106.127      952.964
      105.984      988.603
      105.841      1025.57
      105.698      1063.91
      105.555      1103.68
      105.412      1144.94
      105.269      1187.73
      105.127      1232.11
      104.984      1278.14
      104.841      1325.89
      104.698      1375.42
      104.555      1426.78
      104.412      1480.06
      104.269      1535.32
      104.126      1592.64
      103.983      1652.08
       103.84      1713.74
      103.697      1777.69
      103.554      1844.02
      103.411      1912.81
      103.268      1984.16
      103.125      2058.16
      102.982      2134.91
      102.839      2214.51
      102.696      2297.06
      102.553      2382.68
       102.41      2471.48
      102.267      2563.58
      102.124       2659.1
      101.981      2758.16
      101.839      2860.89
      101.696      2967.44
      101.553      3077.94
       101.41      3192.54
      101.267      3311.38
      101.124      3434.64
      100.981      3562.46
      100.838      3695.03
      100.695       3832.5
      100.552      3975.07
      100.409      4122.93
      100.266      4276.26
      100.123      4435.27
      99.9801      4600.17
      99.8372      4771.17
      99.6942      4948.51
      99.5512      5132.41
      99.4083      5323.12
      99.2653      5520.88
      99.1224      5725.96
      98.9794      5938.63
      98.8365      6159.17
      98.6935      6387.86
      98.5506      6625.01
      98.4076      6870.93
      98.2646      7125.94
      98.1217      7390.38
      97.9787      7664.58
      97.8358      7948.92
      97.6928      8243.77
      97.5499       8549.5
      97.4069      8866.53
       97.264      9195.27
       97.121      9536.14
       96.978       9889.6
      96.8351      10256.1
      96.6921      10636.1
      96.5492      11030.2
      96.4062      11438.8
      96.2633      11862.4
      96.1203      12301.7
      95.9774      12757.2
      95.8344      13229.5
      95.6915      13719.2
      95.5485      14226.9
      95.4055      14753.4
      95.2626      15299.2
      95.1196      15865.2
      94.9767        16452
      94.8337      17060.4
      94.6908      17691.2
      94.5478      18345.3
      94.4049      19023.4
      94.2619      19726.5
      94.1189      20455.5
       93.976      21211.2
       93.833      21994.8
      93.6901      22807.2
      93.5471      23649.5
      93.4042      24522.8
      93.2612      25428.1
      93.1183      26366.8
      92.9753      27339.9
      92.8323      28348.8
      92.6894      29394.8
      92.5464      30479.2
      92.4035      31603.4
      92.2605      32768.9
      92.1176      33977.2
      91.9746      35229.9
      91.8317      36528.5
      91.6887      37874.8
      91.5457      39270.5
      91.4028      40717.4
      91.2598      42217.4
      91.1169      43772.4
      90.9739      45384.4
       90.831      47055.5
       90.688      48787.8
      90.5451      50583.7
      90.4021      52445.3
      90.2591      54375.2
      90.1162      56375.8
      89.9732      58449.6
      89.8303      60599.4
      89.6873      62827.9
      89.5444        65138
      89.4014      67532.6
      89.2585      70014.8
      89.1155      72587.9
      88.9725      75255.1
      88.8296      78019.9
      88.6866      80885.8
      88.5437      83856.5
      88.4007      86935.7
      88.2578      90127.6
      88.1148        93436
      87.9719      96865.4
      87.8289       100420
       87.686       104105
       87.543       107924
         87.4       111882
      87.2571       115985
      87.1141       120238
      86.9712       124646
      86.8282       129215
      86.6853       133950
      86.5423       138858
      86.3994       143946
      86.2564       149218
      86.1134       154683
      85.9705       160348
      85.8275       166218
      85.6846       172303
      85.5416       178609
      85.3987       185145
      85.2557       191919
      85.1128       198939
      84.9698       206215
      84.8268       213756
      84.6839       221572
      84.5409       229672
       84.398       238066
       84.255       246766
      84.1121       255782
      83.9691       265126
      83.8262       274810
      83.6832       284846
      83.5402       295246
      83.3973       306025
      83.2543       317194
      83.1114       328770
      82.9684       340766
      82.8255       353197
      82.6825       366080
      82.5396       379431
      82.3966       393265
      82.2536       407602
      82.1107       422459
      81.9677       437855
      81.8248       453809
      81.6818       470341
      81.5389       487473
      81.3959       505225
       81.253       523621
        81.11       542683
       80.967       562436
      80.8241       582904
      80.6811       604113
      80.5382       626090
      80.3952       648862
      80.2523       672458
      80.1093       696909
      79.9664       722243
      79.8234       748494
      79.6805       775694
      79.5375       803878
      79.3945       833080
      79.2516       863338
      79.1086       894689
      78.9657       927172
      78.8227       960829
      78.6798       995701
      78.5368  1.03183e+06
      78.3939  1.06927e+06
      78.2509  1.10805e+06
      78.1079  1.14824e+06
       77.965  1.18988e+06
       77.822  1.23302e+06
      77.6791  1.27771e+06
      77.5361  1.32401e+06
      77.3932  1.37199e+06
      77.2502  1.42169e+06
      77.1073  1.47319e+06
      76.9643  1.52654e+06
      76.8213  1.58181e+06
      76.6784  1.63907e+06
      76.5354   1.6984e+06
      76.3925  1.75986e+06
      76.2495  1.82353e+06
      76.1066  1.88949e+06
      75.9636  1.95783e+06
      75.8207  2.02863e+06
      75.6777  2.10197e+06
      75.5347  2.17795e+06
      75.3918  2.25666e+06
      75.2488   2.3382e+06
      75.1059  2.42267e+06
      74.9629  2.51017e+06
        74.82  2.60082e+06
       74.677  2.69472e+06
      74.5341    2.792e+06
      74.3911  2.89277e+06
      74.2481  2.99715e+06
      74.1052  3.10528e+06
      73.9622  3.21729e+06
      73.8193  3.33332e+06
      73.6763  3.45351e+06
      73.5334  3.57801e+06
      73.3904  3.70698e+06
      73.2475  3.84056e+06
      73.1045  3.97894e+06
      72.9615  4.12227e+06
      72.8186  4.27073e+06
      72.6756  4.42451e+06
      72.5327   4.5838e+06
      72.3897  4.74879e+06
      72.2468  4.91969e+06
      72.1038   5.0967e+06
      71.9609  5.28004e+06
      71.8179  5.46994e+06
       71.675  5.66664e+06
       71.532  5.87036e+06
       71.389  6.08137e+06
      71.2461  6.29992e+06
      71.1031  6.52628e+06
      70.9602  6.76073e+06
      70.8172  7.00354e+06
      70.6743  7.25503e+06
      70.5313   7.5155e+06
      70.3884  7.78527e+06
      70.2454  8.06466e+06
      70.1024  8.35403e+06
      69.9595  8.65371e+06
      69.8165  8.96408e+06
      69.6736  9.28552e+06
      69.5306  9.61842e+06
      69.3877  9.96318e+06
      69.2447  1.03202e+07
      69.1018    1.069e+07
      68.9588  1.10729e+07
      68.8158  1.14695e+07
      68.6729  1.18802e+07
      68.5299  1.23055e+07
       68.387   1.2746e+07
       68.244  1.32021e+07
      68.1011  1.36744e+07
      67.9581  1.41636e+07
      67.8152  1.46701e+07
      67.6722  1.51947e+07
      67.5292  1.57379e+07
      67.3863  1.63003e+07
      67.2433  1.68828e+07
      67.1004   1.7486e+07
      66.9574  1.81106e+07
      66.8145  1.87573e+07
      66.6715   1.9427e+07
      66.5286  2.01205e+07
      66.3856  2.08386e+07
      66.2426  2.15821e+07
      66.0997   2.2352e+07
      65.9567  2.31492e+07
      65.8138  2.39747e+07
      65.6708  2.48294e+07
      65.5279  2.57144e+07
      65.3849  2.66308e+07
       65.242  2.75796e+07
       65.099   2.8562e+07
      64.9561  2.95792e+07
      64.8131  3.06324e+07
      64.6701  3.17228e+07
      64.5272  3.28519e+07
      64.3842  3.40208e+07
      64.2413  3.52311e+07
      64.0983  3.64842e+07
      63.9554  3.77815e+07
      63.8124  3.91247e+07
      63.6695  4.05154e+07
      63.5265  4.19551e+07
      63.3835  4.34457e+07
      63.2406   4.4989e+07
      63.0976  4.65867e+07
      62.9547  4.82407e+07
      62.8117  4.99531e+07
      62.6688  5.17259e+07
      62.5258  5.35613e+07
      62.3829  5.54613e+07
      62.2399  5.74283e+07
      62.0969  5.94646e+07
       61.954  6.15726e+07
       61.811  6.37549e+07
      61.6681   6.6014e+07
      61.5251  6.83526e+07
      61.3822  7.07736e+07
      61.2392  7.32797e+07
      61.0963   7.5874e+07
      60.9533  7.85595e+07
      60.8103  8.13395e+07
      60.6674  8.42172e+07
      60.5244   8.7196e+07
      60.3815  9.02795e+07
      60.2385  9.34713e+07
      60.0956  9.67752e+07
      59.9526  1.00195e+08
      59.8097  1.03735e+08
      59.6667  1.07399e+08
      59.5237  1.11192e+08
      59.3808  1.15118e+08
      59.2378  1.19181e+08
      59.0949  1.23387e+08
      58.9519   1.2774e+08
       58.809  1.32246e+08
       58.666   1.3691e+08
      58.5231  1.41737e+08
      58.3801  1.46733e+08
      58.2371  1.51904e+08
      58.0942  1.57256e+08
      57.9512  1.62795e+08
      57.8083  1.68528e+08
      57.6653  1.74461e+08
      57.5224  1.80602e+08
      57.3794  1.86958e+08
      57.2365  1.93535e+08
      57.0935  2.00343e+08
      56.9506  2.07388e+08
      56.8076  2.14679e+08
      56.6646  2.22225e+08
      56.5217  2.30034e+08
      56.3787  2.38116e+08
      56.2358   2.4648e+08
      56.0928  2.55135e+08
      55.9499  2.64092e+08
      55.8069  2.73361e+08
       55.664  2.82953e+08
       55.521   2.9288e+08
       55.378  3.03152e+08
      55.2351  3.13782e+08
      55.0921  3.24782e+08
      54.9492  3.36165e+08
      54.8062  3.47944e+08
      54.6633  3.60132e+08
      54.5203  3.72745e+08
      54.3774  3.85796e+08
      54.2344  3.99301e+08
      54.0914  4.13274e+08
      53.9485  4.27734e+08
      53.8055  4.42695e+08
      53.6626  4.58176e+08
      53.5196  4.74195e+08
      53.3767  4.90769e+08
      53.2337  5.07919e+08
      53.0908  5.25663e+08
      52.9478  5.44022e+08
      52.8048  5.63018e+08
      52.6619  5.82672e+08
      52.5189  6.03008e+08
       52.376  6.24047e+08
       52.233  6.45816e+08
      52.0901  6.68338e+08
      51.9471  6.91639e+08
      51.8042  7.15747e+08
      51.6612  7.40688e+08
      51.5182  7.66492e+08
      51.3753  7.93189e+08
      51.2323  8.20808e+08
      51.0894  8.49381e+08
      50.9464  8.78941e+08
      50.8035  9.09522e+08
      50.6605  9.41159e+08
      50.5176  9.73889e+08
      50.3746  1.00775e+09
      50.2316  1.04277e+09
      50.0887  1.07901e+09
      49.9457  1.11649e+09
      49.8028  1.15527e+09
      49.6598  1.19538e+09
      49.5169  1.23687e+09
      49.3739   1.2798e+09
       49.231   1.3242e+09
       49.088  1.37012e+09
      48.9451  1.41763e+09
      48.8021  1.46678e+09
      48.6591  1.51761e+09
      48.5162  1.57019e+09
      48.3732  1.62458e+09
      48.2303  1.68084e+09
      48.0873  1.73903e+09
      47.9444  1.79922e+09
      47.8014  1.86147e+09
      47.6585  1.92586e+09
      47.5155  1.99246e+09
      47.3725  2.06135e+09
      47.2296   2.1326e+09
      47.0866  2.20629e+09
      46.9437   2.2825e+09
      46.8007  2.36133e+09
      46.6578  2.44286e+09
      46.5148  2.52718e+09
      46.3719  2.61438e+09
      46.2289  2.70457e+09
      46.0859  2.79785e+09
       45.943  2.89431e+09
         45.8  2.99407e+09
      45.6571  3.09725e+09
      45.5141  3.20395e+09
      45.3712  3.31429e+09
      45.2282   3.4284e+09
      45.0853  3.54641e+09
      44.9423  3.66845e+09
      44.7993  3.79465e+09
      44.6564  3.92515e+09
      44.5134  4.06011e+09
      44.3705  4.19966e+09
      44.2275  4.34398e+09
      44.0846   4.4932e+09
      43.9416  4.64752e+09
      43.7987  4.80708e+09
      43.6557  4.97208e+09
      43.5127  5.14269e+09
      43.3698   5.3191e+09
      43.2268  5.50151e+09
      43.0839  5.69013e+09
      42.9409  5.88515e+09
       42.798   6.0868e+09
       42.655   6.2953e+09
      42.5121  6.51088e+09
      42.3691  6.73378e+09
      42.2262  6.96424e+09
      42.0832  7.20252e+09
      41.9402  7.44888e+09
      41.7973  7.70359e+09
      41.6543  7.96693e+09
      41.5114  8.23919e+09
      41.3684  8.52068e+09
      41.2255  8.81169e+09
      41.0825  9.11256e+09
      40.9396   9.4236e+09
      40.7966  9.74517e+09
      40.6536  1.00776e+10
      40.5107  1.04213e+10
      40.3677  1.07766e+10
      40.2248  1.11439e+10
      40.0818  1.15236e+10
      39.9389  1.19161e+10
      39.7959  1.23219e+10
       39.653  1.27413e+10
        39.51  1.31749e+10
       39.367  1.36231e+10
      39.2241  1.40865e+10
      39.0811  1.45654e+10
      38.9382  1.50605e+10
      38.7952  1.55722e+10
      38.6523  1.61012e+10
      38.5093  1.66479e+10
      38.3664  1.72131e+10
      38.2234  1.77973e+10
      38.0804  1.84011e+10
      37.9375  1.90252e+10
      37.7945  1.96702e+10
      37.6516  2.03369e+10
      37.5086   2.1026e+10
      37.3657  2.17383e+10
      37.2227  2.24744e+10
      37.0798  2.32352e+10
