Temperature = 1115.66K
THERMAL DISTRIBUTIONS:
  E, kcal/mol           W1
       102.17  1.93877e-05
      102.027   2.0519e-05
      101.884  2.17163e-05
      101.741  2.29832e-05
      101.598   2.4324e-05
      101.455  2.57429e-05
      101.312  2.72444e-05
      101.169  2.88333e-05
      101.027  3.05147e-05
      100.884   3.2294e-05
      100.741  3.41769e-05
      100.598  3.61694e-05
      100.455  3.82778e-05
      100.312   4.0509e-05
      100.169  4.28699e-05
      100.026  4.53683e-05
      99.8829   4.8012e-05
      99.7399  5.08095e-05
       99.597  5.37697e-05
       99.454   5.6902e-05
      99.3111  6.02166e-05
      99.1681  6.37239e-05
      99.0252  6.74351e-05
      98.8822   7.1362e-05
      98.7393  7.55173e-05
      98.5963  7.99141e-05
      98.4533  8.45664e-05
      98.3104  8.94891e-05
      98.1674  9.46979e-05
      98.0245  0.000100209
      97.8815  0.000106041
      97.7386  0.000112211
      97.5956   0.00011874
      97.4527  0.000125648
      97.3097  0.000132958
      97.1667  0.000140691
      97.0238  0.000148874
      96.8808  0.000157532
      96.7379  0.000166692
      96.5949  0.000176384
       96.452  0.000186639
       96.309  0.000197489
      96.1661  0.000208969
      96.0231  0.000221114
      95.8802  0.000233964
      95.7372   0.00024756
      95.5942  0.000261944
      95.4513  0.000277163
      95.3083  0.000293264
      95.1654  0.000310299
      95.0224  0.000328322
      94.8795  0.000347389
      94.7365  0.000367562
      94.5936  0.000388905
      94.4506  0.000411484
      94.3076  0.000435372
      94.1647  0.000460644
      94.0217   0.00048738
      93.8788  0.000515666
      93.7358   0.00054559
      93.5929  0.000577247
      93.4499  0.000610738
       93.307  0.000646168
       93.164   0.00068365
       93.021  0.000723303
      92.8781  0.000765251
      92.7351  0.000809627
      92.5922  0.000856571
      92.4492  0.000906233
      92.3063  0.000958769
      92.1633   0.00101434
      92.0204   0.00107314
      91.8774   0.00113533
      91.7344   0.00120112
      91.5915   0.00127071
      91.4485   0.00134433
      91.3056   0.00142221
      91.1626   0.00150459
      91.0197   0.00159173
      90.8767   0.00168392
      90.7338   0.00178143
      90.5908   0.00188457
      90.4478   0.00199368
      90.3049   0.00210909
      90.1619   0.00223117
       90.019    0.0023603
       89.876   0.00249689
      89.7331   0.00264137
      89.5901    0.0027942
      89.4472   0.00295585
      89.3042   0.00312683
      89.1612   0.00330769
      89.0183   0.00349899
      88.8753   0.00370133
      88.7324   0.00391535
      88.5894   0.00414172
      88.4465   0.00438115
      88.3035    0.0046344
      88.1606   0.00490225
      88.0176   0.00518556
      87.8747   0.00548521
      87.7317   0.00580214
      87.5887   0.00613735
      87.4458   0.00649189
      87.3028   0.00686687
      87.1599   0.00726346
      87.0169   0.00768292
       86.874   0.00812655
       86.731   0.00859574
      86.5881   0.00909197
      86.4451   0.00961679
      86.3021    0.0101719
      86.1592    0.0107589
      86.0162    0.0113797
      85.8733    0.0120363
      85.7303    0.0127307
      85.5874    0.0134651
      85.4444    0.0142418
      85.3015    0.0150632
      85.1585    0.0159318
      85.0155    0.0168505
      84.8726     0.017822
      84.7296    0.0188494
      84.5867    0.0199359
      84.4437    0.0210849
      84.3008       0.0223
      84.1578     0.023585
      84.0149    0.0249439
      83.8719    0.0263809
      83.7289    0.0279006
       83.586    0.0295076
       83.443     0.031207
      83.3001     0.033004
      83.1571    0.0349043
      83.0142    0.0369138
      82.8712    0.0390388
      82.7283    0.0412858
      82.5853     0.043662
      82.4423    0.0461745
      82.2994    0.0488314
      82.1564    0.0516408
      82.0135    0.0546115
      81.8705    0.0577528
      81.7276    0.0610744
      81.5846    0.0645866
      81.4417    0.0683004
      81.2987    0.0722272
      81.1558    0.0763794
      81.0128    0.0807697
      80.8698    0.0854119
      80.7269    0.0903204
      80.5839    0.0955103
       80.441     0.100998
       80.298       0.1068
      80.1551     0.112935
      80.0121     0.119421
      79.8692     0.126279
      79.7262      0.13353
      79.5832     0.141197
      79.4403     0.149303
      79.2973     0.157873
      79.1544     0.166934
      79.0114     0.176514
      78.8685     0.186643
      78.7255     0.197351
      78.5826     0.208673
      78.4396     0.220642
      78.2966     0.233297
      78.1537     0.246676
      78.0107     0.260821
      77.8678     0.275775
      77.7248     0.291584
      77.5819     0.308298
      77.4389     0.325968
       77.296     0.344648
       77.153     0.364397
        77.01     0.385274
      76.8671     0.407345
      76.7241     0.430677
      76.5812     0.455344
      76.4382     0.481419
      76.2953     0.508985
      76.1523     0.538125
      76.0094      0.56893
      75.8664     0.601495
      75.7234     0.635919
      75.5805     0.672309
      75.4375     0.710777
      75.2946     0.751441
      75.1516     0.794426
      75.0087     0.839864
      74.8657     0.887895
      74.7228     0.938667
      74.5798     0.992336
      74.4368      1.04907
      74.2939      1.10903
      74.1509      1.17242
       74.008      1.23942
       73.865      1.31024
      73.7221       1.3851
      73.5791      1.46422
      73.4362      1.54786
      73.2932      1.63626
      73.1503       1.7297
      73.0073      1.82846
      72.8643      1.93285
      72.7214      2.04318
      72.5784       2.1598
      72.4355      2.28305
      72.2925      2.41333
      72.1496      2.55102
      72.0066      2.69655
      71.8637      2.85036
      71.7207      3.01293
      71.5777      3.18474
      71.4348      3.36633
      71.2918      3.55825
      71.1489      3.76108
      71.0059      3.97545
       70.863      4.20201
        70.72      4.44145
      70.5771       4.6945
      70.4341      4.96194
      70.2911      5.24457
      70.1482      5.54326
      70.0052      5.85892
      69.8623      6.19252
      69.7193      6.54506
      69.5764      6.91763
      69.4334      7.31135
      69.2905      7.72743
      69.1475      8.16713
      69.0045      8.63178
      68.8616      9.12281
      68.7186       9.6417
      68.5757        10.19
      68.4327      10.7695
      68.2898      11.3818
      68.1468      12.0288
      68.0039      12.7126
      67.8609      13.4351
      67.7179      14.1985
       67.575      15.0053
       67.432      15.8577
      67.2891      16.7585
      67.1461      17.7103
      67.0032       18.716
      66.8602      19.7788
      66.7173      20.9016
      66.5743      22.0881
      66.4313      23.3418
      66.2884      24.6664
      66.1454      26.0661
      66.0025      27.5449
      65.8595      29.1075
      65.7166      30.7584
      65.5736      32.5028
      65.4307      34.3458
      65.2877       36.293
      65.1448      38.3504
      65.0018      40.5242
      64.8588      42.8208
      64.7159      45.2472
      64.5729      47.8108
        64.43      50.5192
       64.287      53.3807
      64.1441      56.4038
      64.0011      59.5977
      63.8582       62.972
      63.7152      66.5368
      63.5722      70.3029
      63.4293      74.2816
      63.2863       78.485
      63.1434      82.9255
      63.0004      87.6166
      62.8575      92.5724
      62.7145      97.8077
      62.5716      103.338
      62.4286      109.181
      62.2856      115.353
      62.1427      121.873
      61.9997      128.761
      61.8568      136.036
      61.7138      143.722
      61.5709      151.841
      61.4279      160.417
       61.285      169.477
       61.142      179.046
       60.999      189.155
      60.8561      199.832
      60.7131      211.111
      60.5702      223.025
      60.4272      235.609
      60.2843      248.901
      60.1413      262.941
      59.9984      277.771
      59.8554      293.435
      59.7124       309.98
      59.5695      327.456
      59.4265      345.913
      59.2836      365.409
      59.1406          386
      58.9977      407.748
      58.8547      430.718
      58.7118      454.978
      58.5688      480.601
      58.4259      507.663
      58.2829      536.245
      58.1399      566.431
       57.997      598.312
       57.854      631.982
      57.7111      667.542
      57.5681      705.097
      57.4252      744.758
      57.2822      786.644
      57.1393      830.879
      56.9963      877.595
      56.8533       926.93
      56.7104       979.03
      56.5674      1034.05
      56.4245      1092.15
      56.2815      1153.51
      56.1386      1218.31
      55.9956      1286.73
      55.8527      1358.99
      55.7097      1435.29
      55.5667      1515.87
      55.4238      1600.96
      55.2808       1690.8
      55.1379      1785.68
      54.9949      1885.86
       54.852      1991.65
       54.709      2103.35
      54.5661       2221.3
      54.4231      2345.85
      54.2801      2477.35
      54.1372      2616.21
      53.9942      2762.83
      53.8513      2917.64
      53.7083       3081.1
      53.5654      3253.69
      53.4224      3435.92
      53.2795      3628.32
      53.1365      3831.47
      52.9935      4045.95
      52.8506      4272.41
      52.7076       4511.5
      52.5647      4763.93
      52.4217      5030.45
      52.2788      5311.83
      52.1358       5608.9
      51.9929      5922.53
      51.8499      6253.65
      51.7069      6603.22
       51.564      6972.27
       51.421      7361.89
      51.2781      7773.21
      51.1351      8207.44
      50.9922      8665.85
      50.8492      9149.79
      50.7063      9660.67
      50.5633        10200
      50.4204      10769.3
      50.2774      11370.3
      50.1344      12004.8
      49.9915      12674.5
      49.8485      13381.5
      49.7056      14127.8
      49.5626      14915.6
      49.4197      15747.1
      49.2767      16624.9
      49.1338      17551.5
      48.9908      18529.5
      48.8478      19561.9
      48.7049      20651.5
      48.5619      21801.7
       48.419      23015.8
       48.276      24297.2
      48.1331      25649.8
      47.9901      27077.4
      47.8472      28584.2
      47.7042      30174.6
      47.5612      31853.2
      47.4183      33624.9
      47.2753      35494.7
      47.1324      37468.3
      46.9894      39551.1
      46.8465      41749.4
      46.7035      44069.5
      46.5606      46518.1
      46.4176      49102.3
      46.2746      51829.6
      46.1317      54707.8
      45.9887      57745.4
      45.8458        60951
      45.7028        64334
      45.5599      67904.2
      45.4169      71671.8
       45.274      75647.7
       45.131      79843.5
       44.988      84271.1
      44.8451      88943.5
      44.7021      93874.1
      44.5592      99077.1
      44.4162       104567
      44.2733       110361
      44.1303       116474
      43.9874       122925
      43.8444       129732
      43.7014       136915
      43.5585       144494
      43.4155       152491
      43.2726       160929
      43.1296       169833
      42.9867       179227
      42.8437       189139
      42.7008       199598
      42.5578       210632
      42.4149       222275
      42.2719       234559
      42.1289       247519
       41.986       261193
       41.843       275619
      41.7001       290840
      41.5571       306898
      41.4142       323840
      41.2712       341713
      41.1283       360570
      40.9853       380463
      40.8423       401450
      40.6994       423590
      40.5564       446947
      40.4135       471587
      40.2705       497581
      40.1276       525002
      39.9846       553929
      39.8417       584444
      39.6987       616634
      39.5557       650590
      39.4128       686409
      39.2698       724193
      39.1269       764049
      38.9839       806091
       38.841       850437
       38.698       897214
      38.5551       946554
      38.4121       998597
      38.2691  1.05349e+06
      38.1262  1.11139e+06
      37.9832  1.17246e+06
      37.8403  1.23688e+06
      37.6973  1.30482e+06
      37.5544  1.37647e+06
      37.4114  1.45205e+06
      37.2685  1.53176e+06
      37.1255  1.61583e+06
      36.9825   1.7045e+06
      36.8396  1.79801e+06
      36.6966  1.89664e+06
      36.5537  2.00065e+06
      36.4107  2.11034e+06
      36.2678  2.22603e+06
      36.1248  2.34803e+06
      35.9819   2.4767e+06
      35.8389  2.61239e+06
       35.696  2.75548e+06
       35.553  2.90638e+06
        35.41  3.06551e+06
      35.2671  3.23332e+06
      35.1241  3.41028e+06
      34.9812  3.59689e+06
      34.8382  3.79366e+06
      34.6953  4.00116e+06
      34.5523  4.21997e+06
      34.4094  4.45069e+06
      34.2664  4.69397e+06
      34.1234  4.95051e+06
      33.9805    5.221e+06
      33.8375  5.50621e+06
      33.6946  5.80695e+06
      33.5516  6.12404e+06
      33.4087  6.45838e+06
      33.2657  6.81089e+06
      33.1228  7.18257e+06
      32.9798  7.57445e+06
      32.8368  7.98762e+06
      32.6939  8.42323e+06
      32.5509  8.88251e+06
       32.408  9.36673e+06
       32.265  9.87723e+06
      32.1221  1.04154e+07
      31.9791  1.09829e+07
      31.8362  1.15811e+07
      31.6932  1.22117e+07
      31.5502  1.28765e+07
      31.4073  1.35774e+07
      31.2643  1.43163e+07
      31.1214  1.50952e+07
      30.9784  1.59164e+07
      30.8355   1.6782e+07
      30.6925  1.76944e+07
      30.5496  1.86563e+07
      30.4066  1.96703e+07
      30.2636  2.07391e+07
      30.1207  2.18657e+07
      29.9777  2.30533e+07
      29.8348  2.43051e+07
      29.6918  2.56246e+07
      29.5489  2.70154e+07
      29.4059  2.84814e+07
       29.263  3.00266e+07
        29.12  3.16552e+07
       28.977  3.33718e+07
      28.8341  3.51811e+07
      28.6911   3.7088e+07
      28.5482  3.90979e+07
      28.4052  4.12161e+07
      28.2623  4.34487e+07
      28.1193  4.58016e+07
      27.9764  4.82814e+07
      27.8334  5.08949e+07
      27.6905  5.36492e+07
      27.5475  5.65519e+07
      27.4045  5.96109e+07
      27.2616  6.28347e+07
      27.1186   6.6232e+07
      26.9757  6.98121e+07
      26.8327   7.3585e+07
      26.6898  7.75608e+07
      26.5468  8.17504e+07
      26.4039  8.61653e+07
      26.2609  9.08175e+07
      26.1179  9.57198e+07
       25.975  1.00886e+08
       25.832  1.06329e+08
      25.6891  1.12064e+08
      25.5461  1.18108e+08
      25.4032  1.24475e+08
      25.2602  1.31185e+08
      25.1173  1.38255e+08
      24.9743  1.45703e+08
      24.8313  1.53552e+08
      24.6884  1.61821e+08
      24.5454  1.70533e+08
      24.4025  1.79712e+08
      24.2595  1.89382e+08
      24.1166  1.99571e+08
      23.9736  2.10305e+08
      23.8307  2.21614e+08
      23.6877  2.33528e+08
      23.5447  2.46079e+08
      23.4018  2.59302e+08
      23.2588  2.73232e+08
      23.1159  2.87906e+08
      22.9729  3.03365e+08
        22.83   3.1965e+08
       22.687  3.36805e+08
      22.5441  3.54876e+08
      22.4011  3.73912e+08
      22.2581  3.93963e+08
      22.1152  4.15085e+08
      21.9722  4.37334e+08
      21.8293  4.60769e+08
      21.6863  4.85454e+08
      21.5434  5.11455e+08
      21.4004  5.38842e+08
      21.2575  5.67688e+08
      21.1145   5.9807e+08
      20.9715   6.3007e+08
      20.8286  6.63773e+08
      20.6856   6.9927e+08
      20.5427  7.36656e+08
      20.3997  7.76031e+08
      20.2568  8.17499e+08
      20.1138  8.61172e+08
      19.9709  9.07167e+08
      19.8279  9.55605e+08
       19.685  1.00662e+09
       19.542  1.06034e+09
       19.399  1.11691e+09
      19.2561  1.17648e+09
      19.1131  1.23922e+09
      18.9702  1.30528e+09
      18.8272  1.37485e+09
      18.6843  1.44811e+09
      18.5413  1.52525e+09
      18.3984  1.60647e+09
      18.2554    1.692e+09
      18.1124  1.78206e+09
      17.9695  1.87689e+09
      17.8265  1.97673e+09
      17.6836  2.08186e+09
      17.5406  2.19255e+09
      17.3977   2.3091e+09
      17.2547   2.4318e+09
      17.1118  2.56099e+09
      16.9688  2.69701e+09
      16.8258  2.84021e+09
      16.6829  2.99097e+09
      16.5399   3.1497e+09
       16.397   3.3168e+09
       16.254  3.49271e+09
      16.1111  3.67791e+09
      15.9681  3.87287e+09
      15.8252   4.0781e+09
      15.6822  4.29416e+09
      15.5392  4.52159e+09
      15.3963  4.76101e+09
      15.2533  5.01303e+09
      15.1104  5.27831e+09
      14.9674  5.55756e+09
      14.8245  5.85149e+09
      14.6815  6.16089e+09
      14.5386  6.48655e+09
      14.3956  6.82933e+09
      14.2526  7.19011e+09
      14.1097  7.56985e+09
      13.9667  7.96953e+09
      13.8238  8.39019e+09
      13.6808  8.83293e+09
      13.5379  9.29889e+09
      13.3949  9.78929e+09
       13.252  1.03054e+10
       13.109  1.08486e+10
       12.966  1.14202e+10
      12.8231  1.20218e+10
      12.6801  1.26548e+10
      12.5372   1.3321e+10
      12.3942  1.40221e+10
      12.2513  1.47599e+10
      12.1083  1.55362e+10
      11.9654  1.63531e+10
      11.8224  1.72128e+10
      11.6795  1.81173e+10
      11.5365  1.90691e+10
      11.3935  2.00706e+10
      11.2506  2.11244e+10
      11.1076  2.22331e+10
      10.9647  2.33997e+10
      10.8217  2.46272e+10
      10.6788  2.59186e+10
      10.5358  2.72773e+10
      10.3929  2.87069e+10
      10.2499  3.02109e+10
      10.1069  3.17931e+10
      9.96399  3.34578e+10
      9.82103  3.52091e+10
      9.67808  3.70514e+10
      9.53512  3.89896e+10
      9.39217  4.10285e+10
      9.24921  4.31734e+10
      9.10626  4.54296e+10
       8.9633  4.78031e+10
      8.82034  5.02997e+10
      8.67739  5.29259e+10
      8.53443  5.56884e+10
      8.39148  5.85941e+10
      8.24852  6.16504e+10
      8.10557  6.48651e+10
      7.96261  6.82464e+10
      7.81966  7.18028e+10
       7.6767  7.55433e+10
      7.53375  7.94774e+10
      7.39079   8.3615e+10
      7.24784  8.79666e+10
      7.10488  9.25432e+10
      6.96193  9.73563e+10
      6.81897  1.02418e+11
      6.67601  1.07741e+11
      6.53306  1.13339e+11
       6.3901  1.19226e+11
      6.24715  1.25417e+11
      6.10419  1.31927e+11
      5.96124  1.38772e+11
      5.81828  1.45971e+11
      5.67533   1.5354e+11
      5.53237  1.61499e+11
      5.38942  1.69868e+11
      5.24646  1.78667e+11
      5.10351   1.8792e+11
      4.96055  1.97648e+11
       4.8176  2.07876e+11
      4.67464   2.1863e+11
      4.53168  2.29936e+11
      4.38873  2.41822e+11
      4.24577  2.54319e+11
      4.10282  2.67457e+11
      3.95986  2.81269e+11
      3.81691   2.9579e+11
      3.67395  3.11054e+11
        3.531  3.27101e+11
      3.38804   3.4397e+11
      3.24509  3.61702e+11
      3.10213  3.80342e+11
      2.95918  3.99935e+11
      2.81622   4.2053e+11
      2.67326  4.42179e+11
      2.53031  4.64933e+11
      2.38735   4.8885e+11
       2.2444  5.13989e+11
      2.10144  5.40411e+11
      1.95849   5.6818e+11
      1.81553  5.97367e+11
      1.67258  6.28041e+11
      1.52962  6.60279e+11
      1.38667   6.9416e+11
      1.24371  7.29765e+11
      1.10076  7.67184e+11
     0.957801  8.06506e+11
     0.814845  8.47829e+11
      0.67189  8.91253e+11
     0.528935  9.36884e+11
     0.385979  9.84834e+11
     0.243024  1.03522e+12
     0.100069  1.08816e+12
   -0.0428866  1.14379e+12
    -0.185842  1.20224e+12
    -0.328797  1.26365e+12
    -0.471753  1.32818e+12
    -0.614708  1.39598e+12
    -0.757663  1.46721e+12
    -0.900619  1.54204e+12
     -1.04357  1.62066e+12
     -1.18653  1.70326e+12
     -1.32948  1.79004e+12
     -1.47244   1.8812e+12
      -1.6154  1.97696e+12
     -1.75835  2.07757e+12
     -1.90131  2.18325e+12
     -2.04426  2.29426e+12
     -2.18722  2.41087e+12
     -2.33017  2.53336e+12
     -2.47313  2.66203e+12
     -2.61608  2.79717e+12
     -2.75904  2.93912e+12
     -2.90199  3.08821e+12
     -3.04495  3.24481e+12
      -3.1879  3.40928e+12
