Temperature = 1549.73K
THERMAL DISTRIBUTIONS:
  E, kcal/mol           W1
      136.674    0.0280124
      136.531    0.0291471
      136.388    0.0303276
      136.245    0.0315559
      136.102    0.0328338
      135.959    0.0341633
      135.816    0.0355465
      135.673    0.0369855
       135.53    0.0384827
      135.387    0.0400403
      135.244    0.0416608
      135.101    0.0433468
      134.958    0.0451008
      134.815    0.0469255
      134.673     0.048824
       134.53     0.050799
      134.387    0.0528537
      134.244    0.0549913
      134.101    0.0572152
      133.958    0.0595287
      133.815    0.0619356
      133.672    0.0644395
      133.529    0.0670445
      133.386    0.0697544
      133.243    0.0725736
        133.1    0.0755064
      132.957    0.0785575
      132.814    0.0817315
      132.671    0.0850334
      132.528    0.0884684
      132.385    0.0920418
      132.242    0.0957592
      132.099    0.0996263
      131.956     0.103649
      131.813     0.107834
       131.67     0.112187
      131.527     0.116716
      131.385     0.121427
      131.242     0.126328
      131.099     0.131426
      130.956     0.136729
      130.813     0.142245
       130.67     0.147984
      130.527     0.153954
      130.384     0.160163
      130.241     0.166623
      130.098     0.173342
      129.955     0.180331
      129.812     0.187602
      129.669     0.195165
      129.526     0.203032
      129.383     0.211215
       129.24     0.219727
      129.097     0.228582
      128.954     0.237792
      128.811     0.247372
      128.668     0.257338
      128.525     0.267703
      128.382     0.278485
       128.24       0.2897
      128.097     0.301366
      127.954       0.3135
      127.811     0.326121
      127.668     0.339249
      127.525     0.352904
      127.382     0.367108
      127.239     0.381881
      127.096     0.397247
      126.953      0.41323
       126.81     0.429854
      126.667     0.447145
      126.524      0.46513
      126.381     0.483836
      126.238     0.503293
      126.095     0.523529
      125.952     0.544577
      125.809     0.566469
      125.666     0.589239
      125.523     0.612921
       125.38     0.637553
      125.237     0.663171
      125.095     0.689816
      124.952     0.717529
      124.809     0.746352
      124.666      0.77633
      124.523     0.807508
       124.38     0.839935
      124.237      0.87366
      124.094     0.908736
      123.951     0.945216
      123.808     0.983157
      123.665      1.02262
      123.522      1.06365
      123.379      1.10633
      123.236      1.15072
      123.093      1.19689
       122.95       1.2449
      122.807      1.29483
      122.664      1.34676
      122.521      1.40076
      122.378      1.45693
      122.235      1.51534
      122.092      1.57608
      121.949      1.63926
      121.807      1.70495
      121.664      1.77328
      121.521      1.84433
      121.378      1.91822
      121.235      1.99507
      121.092      2.07498
      120.949      2.15809
      120.806      2.24451
      120.663      2.33439
       120.52      2.42785
      120.377      2.52505
      120.234      2.62612
      120.091      2.73123
      119.948      2.84053
      119.805       2.9542
      119.662       3.0724
      119.519      3.19532
      119.376      3.32313
      119.233      3.45605
       119.09      3.59427
      118.947        3.738
      118.804      3.88746
      118.662      4.04287
      118.519      4.20449
      118.376      4.37254
      118.233      4.54729
       118.09      4.72901
      117.947      4.91796
      117.804      5.11444
      117.661      5.31875
      117.518      5.53119
      117.375       5.7521
      117.232       5.9818
      117.089      6.22065
      116.946        6.469
      116.803      6.72724
       116.66      6.99576
      116.517      7.27497
      116.374      7.56528
      116.231      7.86714
      116.088      8.18101
      115.945      8.50737
      115.802       8.8467
      115.659      9.19953
      115.516      9.56639
      115.374      9.94783
      115.231      10.3444
      115.088      10.7568
      114.945      11.1856
      114.802      11.6314
      114.659      12.0949
      114.516      12.5768
      114.373      13.0778
       114.23      13.5988
      114.087      14.1405
      113.944      14.7036
      113.801      15.2891
      113.658      15.8979
      113.515      16.5308
      113.372      17.1889
      113.229       17.873
      113.086      18.5843
      112.943      19.3239
        112.8      20.0927
      112.657      20.8921
      112.514      21.7231
      112.371      22.5871
      112.229      23.4854
      112.086      24.4193
      111.943      25.3902
        111.8      26.3995
      111.657      27.4489
      111.514      28.5399
      111.371       29.674
      111.228      30.8531
      111.085      32.0789
      110.942      33.3533
      110.799      34.6781
      110.656      36.0554
      110.513      37.4871
       110.37      38.9756
      110.227       40.523
      110.084      42.1316
      109.941      43.8038
      109.798      45.5422
      109.655      47.3494
      109.512      49.2281
      109.369       51.181
      109.226      53.2112
      109.084      55.3217
      108.941      57.5155
      108.798      59.7961
      108.655      62.1669
      108.512      64.6313
      108.369      67.1931
      108.226       69.856
      108.083      72.6242
       107.94      75.5017
      107.797      78.4929
      107.654      81.6021
      107.511      84.8342
      107.368      88.1937
      107.225      91.6859
      107.082       95.316
      106.939      99.0892
      106.796      103.011
      106.653      107.088
       106.51      111.326
      106.367      115.731
      106.224      120.309
      106.081      125.068
      105.938      130.015
      105.796      135.156
      105.653      140.501
       105.51      146.056
      105.367      151.829
      105.224       157.83
      105.081      164.068
      104.938      170.551
      104.795       177.29
      104.652      184.294
      104.509      191.573
      104.366       199.14
      104.223      207.004
       104.08      215.177
      103.937      223.672
      103.794      232.502
      103.651      241.678
      103.508      251.216
      103.365      261.129
      103.222      271.431
      103.079      282.139
      102.936      293.267
      102.793      304.833
      102.651      316.853
      102.508      329.346
      102.365       342.33
      102.222      355.823
      102.079      369.847
      101.936      384.421
      101.793      399.568
       101.65      415.309
      101.507      431.669
      101.364       448.67
      101.221      466.339
      101.078      484.701
      100.935      503.783
      100.792      523.614
      100.649      544.223
      100.506       565.64
      100.363      587.897
       100.22      611.027
      100.077      635.063
      99.9344      660.041
      99.7914      685.998
      99.6485      712.973
      99.5055      741.004
      99.3625      770.133
      99.2196      800.403
      99.0766      831.859
      98.9337      864.546
      98.7907      898.514
      98.6478       933.81
      98.5048      970.489
      98.3619       1008.6
      98.2189      1048.21
      98.0759      1089.36
       97.933      1132.13
        97.79      1176.56
      97.6471      1222.74
      97.5041      1270.72
      97.3612      1320.57
      97.2182      1372.38
      97.0753      1426.21
      96.9323      1482.14
      96.7893      1540.26
      96.6464      1600.64
      96.5034      1663.39
      96.3605      1728.59
      96.2175      1796.33
      96.0746      1866.72
      95.9316      1939.86
      95.7887      2015.85
      95.6457       2094.8
      95.5027      2176.84
      95.3598      2262.08
      95.2168      2350.64
      95.0739      2442.66
      94.9309      2538.26
       94.788       2637.6
       94.645       2740.8
      94.5021      2848.03
      94.3591      2959.44
      94.2162      3075.19
      94.0732      3195.44
      93.9302      3320.39
      93.7873      3450.19
      93.6443      3585.06
      93.5014      3725.17
      93.3584      3870.74
      93.2155      4021.98
      93.0725       4179.1
      92.9296      4342.34
      92.7866      4511.93
      92.6436      4688.11
      92.5007      4871.15
      92.3577      5061.31
      92.2148      5258.86
      92.0718      5464.09
      91.9289      5677.29
      91.7859      5898.79
       91.643      6128.89
         91.5      6367.93
       91.357      6616.26
      91.2141      6874.24
      91.0711      7142.23
      90.9282      7420.63
      90.7852      7709.83
      90.6423      8010.26
      90.4993      8322.36
      90.3564      8646.56
      90.2134      8983.34
      90.0704      9333.19
      89.9275      9696.61
      89.7845      10074.1
      89.6416      10466.3
      89.4986      10873.6
      89.3557      11296.8
      89.2127      11736.3
      89.0698      12192.9
      88.9268      12667.1
      88.7838      13159.8
      88.6409      13671.5
      88.4979        14203
       88.355      14755.1
       88.212      15328.6
      88.0691      15924.3
      87.9261        16543
      87.7832      17185.7
      87.6402      17853.2
      87.4972      18546.6
      87.3543      19266.7
      87.2113      20014.8
      87.0684      20791.7
      86.9254      21598.7
      86.7825      22436.8
      86.6395      23307.4
      86.4966      24211.6
      86.3536      25150.7
      86.2107      26126.1
      86.0677      27139.1
      85.9247      28191.3
      85.7818      29284.1
      85.6388      30419.1
      85.4959      31597.8
      85.3529      32822.1
        85.21      34093.6
       85.067      35414.1
      84.9241      36785.6
      84.7811      38209.9
      84.6381      39689.2
      84.4952      41225.5
      84.3522      42820.9
      84.2093      44477.9
      84.0663      46198.7
      83.9234      47985.8
      83.7804      49841.7
      83.6375      51769.1
      83.4945      53770.7
      83.3515      55849.4
      83.2086        58008
      83.0656      60249.7
      82.9227      62577.7
      82.7797      64995.2
      82.6368      67505.7
      82.4938      70112.8
      82.3509      72820.1
      82.2079      75631.4
      82.0649      78550.9
       81.922      81582.5
       81.779      84730.6
      81.6361      87999.6
      81.4931      91394.2
      81.3502      94919.1
      81.2072      98579.4
      81.0643       102380
      80.9213       106327
      80.7783       110425
      80.6354       114680
      80.4924       119099
      80.3495       123687
      80.2065       128451
      80.0636       133398
      79.9206       138534
      79.7777       143867
      79.6347       149405
      79.4918       155155
      79.3488       161125
      79.2058       167323
      79.0629       173759
      78.9199       180442
       78.777       187380
       78.634       194584
      78.4911       202063
      78.3481       209829
      78.2052       217891
      78.0622       226262
      77.9192       234953
      77.7763       243977
      77.6333       253345
      77.4904       263071
      77.3474       273169
      77.2045       283653
      77.0615       294537
      76.9186       305837
      76.7756       317569
      76.6326       329748
      76.4897       342392
      76.3467       355518
      76.2038       369146
      76.0608       383293
      75.9179       397980
      75.7749       413227
       75.632       429055
       75.489       445486
       75.346       462544
      75.2031       480252
      75.0601       498634
      74.9172       517717
      74.7742       537526
      74.6313       558089
      74.4883       579436
      74.3454       601594
      74.2024       624597
      74.0594       648474
      73.9165       673259
      73.7735       698987
      73.6306       725694
      73.4876       753416
      73.3447       782191
      73.2017       812060
      73.0588       843064
      72.9158       875246
      72.7728       908650
      72.6299       943323
      72.4869       979312
       72.344  1.01667e+06
       72.201  1.05544e+06
      72.0581  1.09568e+06
      71.9151  1.13746e+06
      71.7722  1.18081e+06
      71.6292  1.22581e+06
      71.4863  1.27252e+06
      71.3433  1.32099e+06
      71.2003   1.3713e+06
      71.0574  1.42352e+06
      70.9144  1.47772e+06
      70.7715  1.53397e+06
      70.6285  1.59236e+06
      70.4856  1.65295e+06
      70.3426  1.71583e+06
      70.1997   1.7811e+06
      70.0567  1.84883e+06
      69.9137  1.91913e+06
      69.7708  1.99209e+06
      69.6278   2.0678e+06
      69.4849  2.14638e+06
      69.3419  2.22793e+06
       69.199  2.31256e+06
       69.056  2.40039e+06
      68.9131  2.49154e+06
      68.7701  2.58613e+06
      68.6271  2.68429e+06
      68.4842  2.78616e+06
      68.3412  2.89187e+06
      68.1983  3.00158e+06
      68.0553  3.11542e+06
      67.9124  3.23356e+06
      67.7694  3.35615e+06
      67.6265  3.48337e+06
      67.4835  3.61538e+06
      67.3405  3.75237e+06
      67.1976  3.89452e+06
      67.0546  4.04203e+06
      66.9117  4.19509e+06
      66.7687  4.35392e+06
      66.6258  4.51873e+06
      66.4828  4.68974e+06
      66.3399  4.86719e+06
      66.1969  5.05132e+06
      66.0539  5.24238e+06
       65.911  5.44062e+06
       65.768  5.64632e+06
      65.6251  5.85975e+06
      65.4821  6.08121e+06
      65.3392  6.31099e+06
      65.1962   6.5494e+06
      65.0533  6.79677e+06
      64.9103  7.05343e+06
      64.7673  7.31973e+06
      64.6244  7.59603e+06
      64.4814   7.8827e+06
      64.3385  8.18013e+06
      64.1955  8.48871e+06
      64.0526  8.80887e+06
      63.9096  9.14104e+06
      63.7667  9.48567e+06
      63.6237  9.84321e+06
      63.4808  1.02141e+07
      63.3378   1.0599e+07
      63.1948  1.09983e+07
      63.0519  1.14125e+07
      62.9089  1.18422e+07
       62.766   1.2288e+07
       62.623  1.27505e+07
      62.4801  1.32303e+07
      62.3371  1.37281e+07
      62.1942  1.42444e+07
      62.0512  1.47801e+07
      61.9082  1.53358e+07
      61.7653  1.59123e+07
      61.6223  1.65104e+07
      61.4794  1.71307e+07
      61.3364  1.77743e+07
      61.1935  1.84419e+07
      61.0505  1.91344e+07
      60.9076  1.98528e+07
      60.7646  2.05979e+07
      60.6216  2.13709e+07
      60.4787  2.21727e+07
      60.3357  2.30045e+07
      60.1928  2.38672e+07
      60.0498  2.47621e+07
      59.9069  2.56903e+07
      59.7639  2.66532e+07
       59.621  2.76519e+07
       59.478  2.86878e+07
       59.335  2.97623e+07
      59.1921  3.08768e+07
      59.0491  3.20327e+07
      58.9062  3.32317e+07
      58.7632  3.44753e+07
      58.6203  3.57651e+07
      58.4773  3.71029e+07
      58.3344  3.84905e+07
      58.1914  3.99296e+07
      58.0484  4.14222e+07
      57.9055  4.29702e+07
      57.7625  4.45758e+07
      57.6196  4.62409e+07
      57.4766  4.79679e+07
      57.3337   4.9759e+07
      57.1907  5.16165e+07
      57.0478  5.35429e+07
      56.9048  5.55408e+07
      56.7619  5.76128e+07
      56.6189  5.97616e+07
      56.4759    6.199e+07
       56.333   6.4301e+07
        56.19  6.66976e+07
      56.0471   6.9183e+07
      55.9041  7.17604e+07
      55.7612  7.44333e+07
      55.6182   7.7205e+07
      55.4753  8.00793e+07
      55.3323  8.30599e+07
      55.1893  8.61508e+07
      55.0464  8.93559e+07
      54.9034  9.26795e+07
      54.7605  9.61259e+07
      54.6175  9.96997e+07
      54.4746  1.03405e+08
      54.3316  1.07248e+08
      54.1887  1.11233e+08
      54.0457  1.15364e+08
      53.9027  1.19648e+08
      53.7598   1.2409e+08
      53.6168  1.28696e+08
      53.4739  1.33472e+08
      53.3309  1.38424e+08
       53.188  1.43558e+08
       53.045  1.48882e+08
      52.9021  1.54401e+08
      52.7591  1.60124e+08
      52.6161  1.66058e+08
      52.4732  1.72209e+08
      52.3302  1.78588e+08
      52.1873  1.85201e+08
      52.0443  1.92057e+08
      51.9014  1.99166e+08
      51.7584  2.06535e+08
      51.6155  2.14176e+08
      51.4725  2.22097e+08
      51.3295  2.30309e+08
      51.1866  2.38823e+08
      51.0436   2.4765e+08
      50.9007    2.568e+08
      50.7577  2.66287e+08
      50.6148  2.76121e+08
      50.4718  2.86316e+08
      50.3289  2.96885e+08
      50.1859  3.07841e+08
      50.0429  3.19199e+08
         49.9  3.30973e+08
       49.757  3.43178e+08
      49.6141   3.5583e+08
      49.4711  3.68945e+08
      49.3282  3.82541e+08
      49.1852  3.96633e+08
      49.0423  4.11242e+08
      48.8993  4.26384e+08
      48.7564  4.42081e+08
      48.6134  4.58351e+08
      48.4704  4.75215e+08
      48.3275  4.92696e+08
      48.1845  5.10815e+08
      48.0416  5.29596e+08
      47.8986  5.49062e+08
      47.7557  5.69239e+08
      47.6127  5.90151e+08
      47.4698  6.11827e+08
      47.3268  6.34293e+08
      47.1838  6.57578e+08
      47.0409  6.81711e+08
      46.8979  7.06724e+08
       46.755  7.32648e+08
       46.612  7.59515e+08
      46.4691  7.87361e+08
      46.3261   8.1622e+08
      46.1832   8.4613e+08
      46.0402  8.77127e+08
      45.8972  9.09251e+08
      45.7543  9.42543e+08
      45.6113  9.77046e+08
      45.4684   1.0128e+09
      45.3254  1.04986e+09
      45.1825  1.08826e+09
      45.0395  1.12805e+09
      44.8966  1.16929e+09
      44.7536  1.21202e+09
      44.6106  1.25631e+09
      44.4677   1.3022e+09
      44.3247  1.34975e+09
      44.1818  1.39903e+09
      44.0388  1.45009e+09
      43.8959    1.503e+09
      43.7529  1.55783e+09
        43.61  1.61465e+09
       43.467  1.67351e+09
       43.324  1.73451e+09
      43.1811  1.79772e+09
      43.0381  1.86321e+09
      42.8952  1.93107e+09
      42.7522  2.00138e+09
      42.6093  2.07423e+09
      42.4663  2.14971e+09
      42.3234  2.22791e+09
      42.1804  2.30894e+09
      42.0374  2.39289e+09
      41.8945  2.47988e+09
      41.7515  2.56999e+09
      41.6086  2.66336e+09
      41.4656  2.76009e+09
      41.3227  2.86031e+09
      41.1797  2.96414e+09
      41.0368   3.0717e+09
      40.8938  3.18314e+09
      40.7509  3.29859e+09
      40.6079  3.41819e+09
      40.4649   3.5421e+09
       40.322  3.67045e+09
       40.179  3.80343e+09
      40.0361  3.94118e+09
      39.8931  4.08388e+09
      39.7502   4.2317e+09
      39.6072  4.38483e+09
      39.4643  4.54346e+09
      39.3213  4.70777e+09
      39.1783  4.87798e+09
      39.0354   5.0543e+09
      38.8924  5.23693e+09
      38.7495  5.42611e+09
      38.6065  5.62206e+09
      38.4636  5.82504e+09
      38.3206  6.03528e+09
      38.1777  6.25304e+09
      38.0347   6.4786e+09
      37.8917  6.71222e+09
      37.7488  6.95419e+09
      37.6058  7.20482e+09
      37.4629   7.4644e+09
      37.3199  7.73325e+09
       37.177  8.01171e+09
       37.034   8.3001e+09
      36.8911  8.59879e+09
      36.7481  8.90814e+09
      36.6051  9.22851e+09
      36.4622  9.56031e+09
      36.3192  9.90394e+09
      36.1763  1.02598e+10
      36.0333  1.06283e+10
      35.8904    1.101e+10
      35.7474  1.14053e+10
      35.6045  1.18146e+10
      35.4615  1.22385e+10
      35.3185  1.26774e+10
      35.1756   1.3132e+10
      35.0326  1.36027e+10
      34.8897  1.40901e+10
      34.7467  1.45949e+10
      34.6038  1.51175e+10
      34.4608  1.56587e+10
      34.3179  1.62192e+10
      34.1749  1.67995e+10
      34.0319  1.74003e+10
       33.889  1.80225e+10
       33.746  1.86667e+10
      33.6031  1.93337e+10
      33.4601  2.00244e+10
      33.3172  2.07395e+10
      33.1742  2.14799e+10
      33.0313  2.22464e+10
      32.8883  2.30401e+10
      32.7454  2.38619e+10
      32.6024  2.47126e+10
      32.4594  2.55935e+10
      32.3165  2.65054e+10
      32.1735  2.74495e+10
      32.0306   2.8427e+10
      31.8876  2.94389e+10
      31.7447  3.04865e+10
      31.6017  3.15711e+10
      31.4588  3.26938e+10
      31.3158  3.38561e+10
