Temperature = 774.101K
THERMAL DISTRIBUTIONS:
  E, kcal/mol           W1
      75.0201  2.86165e-10
      74.8772  3.11262e-10
      74.7342  3.38557e-10
      74.5912  3.68244e-10
      74.4483  4.00531e-10
      74.3053  4.35645e-10
      74.1624  4.73836e-10
      74.0194  5.15371e-10
      73.8765  5.60542e-10
      73.7335  6.09669e-10
      73.5906  6.63097e-10
      73.4476  7.21203e-10
      73.3046  7.84395e-10
      73.1617  8.53117e-10
      73.0187  9.27855e-10
      72.8758  1.00913e-09
      72.7328  1.09752e-09
      72.5899  1.19365e-09
      72.4469  1.29818e-09
       72.304  1.41186e-09
       72.161  1.53549e-09
       72.018  1.66992e-09
      71.8751  1.81612e-09
      71.7321   1.9751e-09
      71.5892  2.14798e-09
      71.4462  2.33598e-09
      71.3033  2.54042e-09
      71.1603  2.76273e-09
      71.0174  3.00447e-09
      70.8744  3.26735e-09
      70.7314   3.5532e-09
      70.5885  3.86403e-09
      70.4455  4.20202e-09
      70.3026  4.56954e-09
      70.1596  4.96918e-09
      70.0167  5.40372e-09
      69.8737  5.87623e-09
      69.7308  6.39001e-09
      69.5878  6.94866e-09
      69.4448   7.5561e-09
      69.3019  8.21659e-09
      69.1589  8.93474e-09
       69.016  9.71559e-09
       68.873  1.05646e-08
      68.7301  1.14878e-08
      68.5871  1.24915e-08
      68.4442  1.35828e-08
      68.3012  1.47693e-08
      68.1583  1.60594e-08
      68.0153  1.74621e-08
      67.8723  1.89871e-08
      67.7294  2.06452e-08
      67.5864  2.24478e-08
      67.4435  2.44078e-08
      67.3005  2.65386e-08
      67.1576  2.88553e-08
      67.0146   3.1374e-08
      66.8717  3.41123e-08
      66.7287  3.70893e-08
      66.5857  4.03259e-08
      66.4428  4.38445e-08
      66.2998  4.76698e-08
      66.1569  5.18285e-08
      66.0139  5.63496e-08
       65.871  6.12647e-08
       65.728  6.66079e-08
      65.5851  7.24167e-08
      65.4421  7.87314e-08
      65.2991  8.55961e-08
      65.1562  9.30588e-08
      65.0132  1.01171e-07
      64.8703   1.0999e-07
      64.7273  1.19577e-07
      64.5844  1.29998e-07
      64.4414  1.41327e-07
      64.2985  1.53641e-07
      64.1555  1.67028e-07
      64.0125  1.81579e-07
      63.8696  1.97397e-07
      63.7266  2.14591e-07
      63.5837  2.33281e-07
      63.4407  2.53597e-07
      63.2978  2.75679e-07
      63.1548  2.99683e-07
      63.0119  3.25774e-07
      62.8689  3.54134e-07
      62.7259  3.84961e-07
       62.583  4.18467e-07
        62.44  4.54886e-07
      62.2971  4.94471e-07
      62.1541  5.37496e-07
      62.0112  5.84261e-07
      61.8682   6.3509e-07
      61.7253  6.90336e-07
      61.5823  7.50381e-07
      61.4393  8.15643e-07
      61.2964  8.86574e-07
      61.1534  9.63666e-07
      61.0105  1.04745e-06
      60.8675  1.13852e-06
      60.7246  1.23749e-06
      60.5816  1.34505e-06
      60.4387  1.46196e-06
      60.2957  1.58901e-06
      60.1528  1.72709e-06
      60.0098  1.87715e-06
      59.8668  2.04024e-06
      59.7239  2.21747e-06
      59.5809  2.41009e-06
       59.438  2.61941e-06
       59.295   2.8469e-06
      59.1521  3.09411e-06
      59.0091  3.36277e-06
      58.8662  3.65472e-06
      58.7232  3.97199e-06
      58.5802  4.31677e-06
      58.4373  4.69144e-06
      58.2943  5.09859e-06
      58.1514  5.54102e-06
      58.0084  6.02181e-06
      57.8655  6.54425e-06
      57.7225  7.11197e-06
      57.5796  7.72888e-06
      57.4366  8.39923e-06
      57.2936  9.12764e-06
      57.1507  9.91915e-06
      57.0077  1.07792e-05
      56.8648  1.17138e-05
      56.7218  1.27292e-05
      56.5789  1.38326e-05
      56.4359  1.50315e-05
       56.293  1.63341e-05
        56.15  1.77496e-05
       56.007  1.92875e-05
      55.8641  2.09585e-05
      55.7211  2.27741e-05
      55.5782  2.47467e-05
      55.4352    2.689e-05
      55.2923  2.92187e-05
      55.1493  3.17488e-05
      55.0064  3.44977e-05
      54.8634  3.74843e-05
      54.7204  4.07291e-05
      54.5775  4.42544e-05
      54.4345  4.80845e-05
      54.2916  5.22456e-05
      54.1486  5.67664e-05
      54.0057  6.16777e-05
      53.8627  6.70135e-05
      53.7198  7.28103e-05
      53.5768  7.91078e-05
      53.4338  8.59493e-05
      53.2909  9.33816e-05
      53.1479  0.000101456
       53.005  0.000110227
       52.862  0.000119756
      52.7191  0.000130107
      52.5761  0.000141352
      52.4332  0.000153568
      52.2902  0.000166837
      52.1473  0.000181252
      52.0043  0.000196911
      51.8613   0.00021392
      51.7184  0.000232397
      51.5754  0.000252467
      51.4325  0.000274269
      51.2895   0.00029795
      51.1466  0.000323674
      51.0036  0.000351615
      50.8607  0.000381965
      50.7177  0.000414931
      50.5747  0.000450738
      50.4318  0.000489632
      50.2888  0.000531876
      50.1459   0.00057776
      50.0029  0.000627597
        49.86  0.000681727
       49.717  0.000740519
      49.5741  0.000804374
      49.4311  0.000873728
      49.2881  0.000949053
      49.1452   0.00103086
      49.0022   0.00111972
      48.8593   0.00121621
      48.7163   0.00132102
      48.5734   0.00143484
      48.4304   0.00155846
      48.2875   0.00169271
      48.1445   0.00183851
      48.0015   0.00199685
      47.8586   0.00216881
      47.7156   0.00235555
      47.5727   0.00255835
      47.4297   0.00277858
      47.2868   0.00301775
      47.1438   0.00327747
      47.0009   0.00355952
      46.8579    0.0038658
      46.7149   0.00419839
       46.572   0.00455956
       46.429   0.00495175
      46.2861   0.00537763
      46.1431   0.00584009
      46.0002   0.00634225
      45.8572   0.00688753
      45.7143   0.00747962
      45.5713   0.00812253
      45.4284   0.00882063
      45.2854   0.00957863
      45.1424    0.0104017
      44.9995    0.0112953
      44.8565    0.0122657
      44.7136    0.0133192
      44.5706    0.0144631
      44.4277    0.0157051
      44.2847    0.0170537
      44.1418    0.0185178
      43.9988    0.0201074
      43.8558    0.0218333
      43.7129    0.0237071
      43.5699    0.0257415
       43.427    0.0279502
       43.284    0.0303481
      43.1411    0.0329514
      42.9981    0.0357777
      42.8552     0.038846
      42.7122    0.0421771
      42.5692    0.0457933
      42.4263    0.0497192
      42.2833    0.0539811
      42.1404    0.0586077
      41.9974    0.0636303
      41.8545    0.0690826
      41.7115    0.0750014
      41.5686    0.0814265
      41.4256    0.0884012
      41.2826    0.0959723
      41.1397     0.104191
      40.9967     0.113112
      40.8538     0.122796
      40.7108     0.133308
      40.5679     0.144718
      40.4249     0.157103
       40.282     0.170546
       40.139     0.185138
       39.996     0.200976
      39.8531     0.218168
      39.7101     0.236827
      39.5672     0.257079
      39.4242     0.279061
      39.2813     0.302919
      39.1383     0.328814
      38.9954     0.356919
      38.8524     0.387422
      38.7094     0.420527
      38.5665     0.456457
      38.4235     0.495452
      38.2806     0.537772
      38.1376     0.583701
      37.9947     0.633547
      37.8517     0.687642
      37.7088     0.746348
      37.5658     0.810058
      37.4229     0.879198
      37.2799     0.954228
      37.1369      1.03565
       36.994      1.12401
       36.851       1.2199
      36.7081      1.32395
      36.5651      1.43686
      36.4222      1.55938
      36.2792      1.69234
      36.1363      1.83661
      35.9933      1.99316
      35.8503      2.16303
      35.7074      2.34735
      35.5644      2.54736
      35.4215      2.76437
      35.2785      2.99985
      35.1356      3.25534
      34.9926      3.53256
      34.8497      3.83335
      34.7067       4.1597
      34.5637      4.51379
      34.4208      4.89796
      34.2778      5.31478
      34.1349      5.76701
      33.9919      6.25765
       33.849      6.78995
       33.706      7.36746
      33.5631        7.994
      33.4201      8.67373
      33.2771      9.41116
      33.1342      10.2112
      32.9912      11.0791
      32.8483      12.0206
      32.7053       13.042
      32.5624        14.15
      32.4194       15.352
      32.2765      16.6559
      32.1335      18.0704
      31.9905      19.6048
      31.8476      21.2692
      31.7046      23.0747
      31.5617      25.0331
      31.4187      27.1575
      31.2758      29.4618
      31.1328      31.9613
      30.9899      34.6725
      30.8469      37.6132
      30.7039      40.8028
       30.561      44.2625
       30.418      48.0149
      30.2751      52.0849
      30.1321      56.4993
      29.9892       61.287
      29.8462      66.4798
      29.7033      72.1116
      29.5603      78.2197
      29.4174      84.8442
      29.2744      92.0286
      29.1314      99.8203
      28.9885       108.27
      28.8455      117.434
      28.7026      127.373
      28.5596       138.15
      28.4167      149.838
      28.2737      162.513
      28.1308      176.258
      27.9878      191.163
      27.8448      207.327
      27.7019      224.854
      27.5589       243.86
       27.416       264.47
       27.273      286.818
      27.1301       311.05
      26.9871      337.326
      26.8442      365.818
      26.7012      396.711
      26.5582      430.208
      26.4153      466.528
      26.2723      505.907
      26.1294      548.605
      25.9864      594.899
      25.8435      645.091
      25.7005       699.51
      25.5576       758.51
      25.4146      822.477
      25.2716      891.827
      25.1287      967.013
      24.9857      1048.52
      24.8428      1136.89
      24.6998      1232.69
      24.5569      1336.55
      24.4139      1449.14
       24.271       1571.2
       24.128      1703.51
       23.985      1846.94
      23.8421      2002.43
      23.6991      2170.98
      23.5562      2353.68
      23.4132      2551.73
      23.2703      2766.41
      23.1273      2999.12
      22.9844      3251.35
      22.8414      3524.76
      22.6984      3821.11
      22.5555      4142.33
      22.4125      4490.48
      22.2696      4867.84
      22.1266      5276.85
      21.9837      5720.14
      21.8407       6200.6
      21.6978      6721.33
      21.5548      7285.69
      21.4119      7897.34
      21.2689      8560.22
      21.1259      9278.63
       20.983      10057.2
        20.84        10901
      20.6971      11815.3
      20.5541      12806.3
      20.4112      13880.1
      20.2682      15043.8
      20.1253      16304.9
      19.9823      17671.4
      19.8393      19152.2
      19.6964      20756.8
      19.5534      22495.5
      19.4105      24379.6
      19.2675      26421.2
      19.1246      28633.3
      18.9816      31030.1
      18.8387      33627.2
      18.6957      36441.2
      18.5527      39490.1
      18.4098      42793.5
      18.2668      46372.7
      18.1239      50250.5
      17.9809      54451.8
       17.838      59003.6
       17.695        63935
      17.5521      69277.7
      17.4091      75065.8
      17.2661      81336.3
      17.1232      88129.4
      16.9802      95488.6
      16.8373       103461
      16.6943       112097
      16.5514       121453
      16.4084       131587
      16.2655       142565
      16.1225       154457
      15.9795       167339
      15.8366       181292
      15.6936       196406
      15.5507       212777
      15.4077       230509
      15.2648       249716
      15.1218       270519
      14.9789       293051
      14.8359       317455
       14.693       343887
        14.55       372514
       14.407       403518
      14.2641       437097
      14.1211       473463
      13.9782       512847
      13.8352       555499
      13.6923       601689
      13.5493       651711
      13.4064       705882
      13.2634       764544
      13.1204       828068
      12.9775       896858
      12.8345       971348
      12.6916  1.05201e+06
      12.5486  1.13935e+06
      12.4057  1.23393e+06
      12.2627  1.33633e+06
      12.1198  1.44722e+06
      11.9768  1.56728e+06
      11.8338  1.69728e+06
      11.6909  1.83803e+06
      11.5479  1.99042e+06
       11.405  2.15542e+06
       11.262  2.33406e+06
      11.1191  2.52746e+06
      10.9761  2.73685e+06
      10.8332  2.96355e+06
      10.6902  3.20897e+06
      10.5472  3.47466e+06
      10.4043  3.76229e+06
      10.2613  4.07368e+06
      10.1184  4.41076e+06
      9.97542  4.77567e+06
      9.83247  5.17068e+06
      9.68951  5.59828e+06
      9.54656  6.06115e+06
       9.4036  6.56218e+06
      9.26065  7.10453e+06
      9.11769  7.69157e+06
      8.97474  8.32699e+06
      8.83178  9.01476e+06
      8.68883  9.75919e+06
      8.54587  1.05649e+07
      8.40292   1.1437e+07
      8.25996  1.23809e+07
        8.117  1.34024e+07
      7.97405   1.4508e+07
      7.83109  1.57046e+07
      7.68814  1.69995e+07
      7.54518   1.8401e+07
      7.40223  1.99177e+07
      7.25927   2.1559e+07
      7.11632  2.33352e+07
      6.97336  2.52573e+07
      6.83041  2.73374e+07
      6.68745  2.95882e+07
       6.5445  3.20239e+07
      6.40154  3.46595e+07
      6.25859  3.75113e+07
      6.11563  4.05972e+07
      5.97267  4.39362e+07
      5.82972  4.75491e+07
      5.68676  5.14582e+07
      5.54381  5.56877e+07
      5.40085  6.02639e+07
       5.2579   6.5215e+07
      5.11494  7.05718e+07
      4.97199  7.63672e+07
      4.82903  8.26372e+07
      4.68608  8.94205e+07
      4.54312   9.6759e+07
      4.40017  1.04698e+08
      4.25721  1.13286e+08
      4.11425  1.22577e+08
       3.9713  1.32628e+08
      3.82834    1.435e+08
      3.68539   1.5526e+08
      3.54243  1.67982e+08
      3.39948  1.81743e+08
      3.25652  1.96628e+08
      3.11357  2.12728e+08
      2.97061  2.30142e+08
      2.82766  2.48978e+08
       2.6847  2.69351e+08
      2.54175  2.91385e+08
      2.39879  3.15217e+08
      2.25584  3.40992e+08
      2.11288  3.68868e+08
      1.96992  3.99015e+08
      1.82697   4.3162e+08
      1.68401   4.6688e+08
      1.54106  5.05011e+08
       1.3981  5.46247e+08
      1.25515   5.9084e+08
      1.11219  6.39061e+08
     0.969237  6.91206e+08
     0.826282  7.47592e+08
     0.683327  8.08563e+08
     0.540371  8.74491e+08
     0.397416  9.45777e+08
     0.254461  1.02286e+09
     0.111505   1.1062e+09
   -0.0314502   1.1963e+09
    -0.174406  1.29373e+09
    -0.317361  1.39906e+09
    -0.460316  1.51294e+09
    -0.603272  1.63606e+09
    -0.746227  1.76917e+09
    -0.889182  1.91307e+09
     -1.03214  2.06864e+09
     -1.17509  2.23682e+09
     -1.31805  2.41862e+09
       -1.461  2.61515e+09
     -1.60396   2.8276e+09
     -1.74691  3.05725e+09
     -1.88987  3.30548e+09
     -2.03283  3.57381e+09
     -2.17578  3.86384e+09
     -2.31874  4.17733e+09
     -2.46169  4.51617e+09
     -2.60465  4.88241e+09
      -2.7476  5.27824e+09
     -2.89056  5.70605e+09
     -3.03351  6.16842e+09
     -3.17647  6.66813e+09
     -3.31942  7.20817e+09
     -3.46238  7.79181e+09
     -3.60533  8.42253e+09
     -3.74829  9.10414e+09
     -3.89124  9.84071e+09
      -4.0342  1.06367e+10
     -4.17716  1.14968e+10
     -4.32011  1.24262e+10
     -4.46307  1.34304e+10
     -4.60602  1.45156e+10
     -4.74898  1.56881e+10
     -4.89193   1.6955e+10
     -5.03489  1.83238e+10
     -5.17784  1.98027e+10
      -5.3208  2.14006e+10
     -5.46375  2.31269e+10
     -5.60671   2.4992e+10
     -5.74966  2.70069e+10
     -5.89262  2.91837e+10
     -6.03557  3.15353e+10
     -6.17853  3.40757e+10
     -6.32149    3.682e+10
     -6.46444  3.97844e+10
      -6.6074  4.29867e+10
     -6.75035  4.64458e+10
     -6.89331  5.01822e+10
     -7.03626   5.4218e+10
     -7.17922  5.85772e+10
     -7.32217  6.32855e+10
     -7.46513  6.83709e+10
     -7.60808  7.38634e+10
     -7.75104  7.97954e+10
     -7.89399  8.62019e+10
     -8.03695  9.31209e+10
      -8.1799  1.00593e+11
     -8.32286  1.08662e+11
     -8.46582  1.17377e+11
     -8.60877  1.26787e+11
     -8.75173  1.36949e+11
     -8.89468  1.47922e+11
     -9.03764   1.5977e+11
     -9.18059  1.72564e+11
     -9.32355  1.86379e+11
      -9.4665  2.01295e+11
     -9.60946    2.174e+11
     -9.75241  2.34788e+11
     -9.89537  2.53562e+11
     -10.0383   2.7383e+11
     -10.1813  2.95713e+11
     -10.3242  3.19336e+11
     -10.4672   3.4484e+11
     -10.6101  3.72372e+11
     -10.7531  4.02093e+11
     -10.8961  4.34177e+11
      -11.039   4.6881e+11
      -11.182  5.06194e+11
     -11.3249  5.46548e+11
     -11.4679  5.90104e+11
     -11.6108  6.37118e+11
     -11.7538  6.87861e+11
     -11.8967  7.42629e+11
     -12.0397  8.01739e+11
     -12.1827  8.65534e+11
     -12.3256  9.34384e+11
     -12.4686  1.00869e+12
     -12.6115  1.08887e+12
     -12.7545   1.1754e+12
     -12.8974  1.26878e+12
     -13.0404  1.36955e+12
     -13.1833  1.47828e+12
     -13.3263  1.59561e+12
     -13.4693  1.72221e+12
     -13.6122  1.85881e+12
     -13.7552   2.0062e+12
     -13.8981  2.16522e+12
     -14.0411  2.33679e+12
      -14.184  2.52189e+12
      -14.327  2.72159e+12
     -14.4699  2.93703e+12
     -14.6129  3.16945e+12
     -14.7559  3.42018e+12
     -14.8988  3.69066e+12
     -15.0418  3.98243e+12
     -15.1847  4.29716e+12
     -15.3277  4.63666e+12
     -15.4706  5.00285e+12
     -15.6136  5.39783e+12
     -15.7565  5.82385e+12
     -15.8995  6.28333e+12
     -16.0424   6.7789e+12
     -16.1854  7.31338e+12
     -16.3284  7.88979e+12
     -16.4713  8.51142e+12
     -16.6143  9.18179e+12
     -16.7572  9.90471e+12
     -16.9002  1.06843e+13
     -17.0431  1.15249e+13
     -17.1861  1.24313e+13
      -17.329  1.34087e+13
      -17.472  1.44626e+13
      -17.615  1.55988e+13
     -17.7579  1.68239e+13
     -17.9009  1.81448e+13
     -18.0438  1.95689e+13
     -18.1868  2.11041e+13
     -18.3297  2.27592e+13
     -18.4727  2.45435e+13
     -18.6156  2.64669e+13
     -18.7586  2.85403e+13
     -18.9016  3.07753e+13
     -19.0445  3.31845e+13
     -19.1875  3.57814e+13
     -19.3304  3.85804e+13
     -19.4734  4.15973e+13
     -19.6163  4.48489e+13
     -19.7593  4.83534e+13
     -19.9022  5.21303e+13
     -20.0452  5.62006e+13
     -20.1882  6.05871e+13
     -20.3311  6.53143e+13
     -20.4741  7.04084e+13
      -20.617  7.58976e+13
       -20.76  8.18125e+13
     -20.9029  8.81859e+13
     -21.0459  9.50532e+13
     -21.1888  1.02452e+14
     -21.3318  1.10424e+14
     -21.4748  1.19013e+14
     -21.6177  1.28266e+14
     -21.7607  1.38235e+14
     -21.9036  1.48974e+14
     -22.0466  1.60543e+14
     -22.1895  1.73005e+14
     -22.3325   1.8643e+14
     -22.4754   2.0089e+14
     -22.6184  2.16465e+14
     -22.7614  2.33242e+14
     -22.9043  2.51311e+14
     -23.0473  2.70772e+14
     -23.1902  2.91731e+14
     -23.3332  3.14304e+14
     -23.4761  3.38614e+14
     -23.6191  3.64793e+14
      -23.762  3.92985e+14
      -23.905  4.23343e+14
     -24.0479  4.56033e+14
     -24.1909  4.91232e+14
     -24.3339  5.29132e+14
     -24.4768  5.69939e+14
     -24.6198  6.13876e+14
     -24.7627  6.61179e+14
     -24.9057  7.12105e+14
     -25.0486  7.66931e+14
     -25.1916  8.25952e+14
     -25.3345  8.89487e+14
     -25.4775  9.57879e+14
     -25.6205   1.0315e+15
     -25.7634  1.11074e+15
     -25.9064  1.19603e+15
     -26.0493  1.28782e+15
     -26.1923  1.38662e+15
     -26.3352  1.49296e+15
     -26.4782   1.6074e+15
     -26.6211  1.73055e+15
     -26.7641  1.86308e+15
     -26.9071  2.00569e+15
       -27.05  2.15916e+15
      -27.193  2.32428e+15
     -27.3359  2.50195e+15
     -27.4789  2.69312e+15
     -27.6218  2.89881e+15
     -27.7648   3.1201e+15
     -27.9077  3.35818e+15
     -28.0507  3.61431e+15
     -28.1937  3.88985e+15
     -28.3366  4.18626e+15
     -28.4796   4.5051e+15
     -28.6225  4.84806e+15
     -28.7655  5.21696e+15
     -28.9084  5.61376e+15
     -29.0514  6.04051e+15
     -29.1943   6.4995e+15
     -29.3373  6.99312e+15
     -29.4803  7.52398e+15
     -29.6232  8.09485e+15
     -29.7662  8.70871e+15
     -29.9091  9.36877e+15
     -30.0521  1.00786e+16
      -30.195  1.08417e+16
      -30.338  1.16622e+16
