Temperature = 1601.11K
THERMAL DISTRIBUTIONS:
  E, kcal/mol           W1
      140.757    0.0544993
      140.614    0.0566286
      140.471    0.0588408
      140.328    0.0611392
      140.185    0.0635271
      140.042    0.0660081
      139.899    0.0685857
      139.756    0.0712637
      139.613     0.074046
       139.47    0.0769366
      139.327    0.0799398
      139.184    0.0830599
      139.041    0.0863015
      138.898    0.0896693
      138.755    0.0931681
      138.612    0.0968031
      138.469      0.10058
      138.326     0.104503
      138.183     0.108579
      138.041     0.112813
      137.898     0.117213
      137.755     0.121783
      137.612     0.126531
      137.469     0.131464
      137.326     0.136588
      137.183     0.141912
       137.04     0.147443
      136.897     0.153189
      136.754     0.159158
      136.611     0.165359
      136.468       0.1718
      136.325     0.178493
      136.182     0.185445
      136.039     0.192667
      135.896      0.20017
      135.753     0.207964
       135.61      0.21606
      135.467     0.224471
      135.324     0.233209
      135.181     0.242286
      135.038     0.251715
      134.896      0.26151
      134.753     0.271685
       134.61     0.282256
      134.467     0.293236
      134.324     0.304642
      134.181     0.316491
      134.038     0.328799
      133.895     0.341584
      133.752     0.354866
      133.609     0.368662
      133.466     0.382993
      133.323      0.39788
       133.18     0.413344
      133.037     0.429407
      132.894     0.446093
      132.751     0.463425
      132.608     0.481429
      132.465      0.50013
      132.322     0.519556
      132.179     0.539734
      132.036     0.560693
      131.893     0.582465
      131.751     0.605079
      131.608     0.628569
      131.465     0.652968
      131.322     0.678311
      131.179     0.704636
      131.036     0.731979
      130.893      0.76038
       130.75      0.78988
      130.607     0.820521
      130.464     0.852348
      130.321     0.885405
      130.178     0.919741
      130.035     0.955405
      129.892     0.992447
      129.749      1.03092
      129.606      1.07088
      129.463      1.11239
       129.32       1.1555
      129.177      1.20028
      129.034      1.24679
      128.891      1.29509
      128.748      1.34526
      128.605      1.39737
      128.463      1.45149
       128.32       1.5077
      128.177      1.56608
      128.034      1.62671
      127.891      1.68969
      127.748      1.75509
      127.605      1.82302
      127.462      1.89358
      127.319      1.96685
      127.176      2.04295
      127.033      2.12199
       126.89      2.20408
      126.747      2.28933
      126.604      2.37787
      126.461      2.46982
      126.318      2.56532
      126.175      2.66451
      126.032      2.76751
      125.889      2.87449
      125.746      2.98558
      125.603      3.10096
       125.46      3.22079
      125.318      3.34523
      125.175      3.47446
      125.032      3.60868
      124.889      3.74806
      124.746      3.89281
      124.603      4.04313
       124.46      4.19924
      124.317      4.36136
      124.174      4.52971
      124.031      4.70455
      123.888      4.88612
      123.745      5.07467
      123.602      5.27047
      123.459      5.47381
      123.316      5.68497
      123.173      5.90425
       123.03      6.13196
      122.887      6.36843
      122.744      6.61399
      122.601      6.86899
      122.458      7.13379
      122.315      7.40876
      122.172       7.6943
       122.03      7.99082
      121.887      8.29872
      121.744      8.61845
      121.601      8.95046
      121.458      9.29523
      121.315      9.65323
      121.172       10.025
      121.029       10.411
      120.886      10.8118
      120.743      11.2281
        120.6      11.6602
      120.457       12.109
      120.314       12.575
      120.171      13.0589
      120.028      13.5613
      119.885       14.083
      119.742      14.6247
      119.599      15.1872
      119.456      15.7713
      119.313      16.3777
       119.17      17.0074
      119.027      17.6612
      118.885      18.3401
      118.742      19.0449
      118.599      19.7768
      118.456      20.5367
      118.313      21.3258
       118.17       22.145
      118.027      22.9956
      117.884      23.8788
      117.741      24.7958
      117.598      25.7479
      117.455      26.7364
      117.312      27.7628
      117.169      28.8284
      117.026      29.9348
      116.883      31.0835
       116.74      32.2762
      116.597      33.5145
      116.454      34.8001
      116.311      36.1349
      116.168      37.5207
      116.025      38.9595
      115.882      40.4533
       115.74      42.0042
      115.597      43.6143
      115.454      45.2859
      115.311      47.0214
      115.168      48.8232
      115.025      50.6938
      114.882      52.6359
      114.739      54.6521
      114.596      56.7452
      114.453      58.9183
       114.31      61.1743
      114.167      63.5164
      114.024      65.9479
      113.881      68.4721
      113.738      71.0927
      113.595      73.8132
      113.452      76.6374
      113.309      79.5693
      113.166      82.6131
      113.023      85.7728
       112.88      89.0531
      112.737      92.4583
      112.594      95.9933
      112.452       99.663
      112.309      103.472
      112.166      107.427
      112.023      111.532
       111.88      115.794
      111.737      120.218
      111.594       124.81
      111.451      129.577
      111.308      134.526
      111.165      139.663
      111.022      144.995
      110.879       150.53
      110.736      156.276
      110.593      162.241
       110.45      168.432
      110.307      174.859
      110.164       181.53
      110.021      188.454
      109.878      195.642
      109.735      203.104
      109.592      210.848
      109.449      218.887
      109.307      227.232
      109.164      235.893
      109.021      244.883
      108.878      254.215
      108.735      263.901
      108.592      273.955
      108.449      284.391
      108.306      295.222
      108.163      306.465
       108.02      318.134
      107.877      330.246
      107.734      342.818
      107.591      355.866
      107.448       369.41
      107.305      383.467
      107.162      398.056
      107.019      413.199
      106.876      428.916
      106.733      445.229
       106.59       462.16
      106.447      479.732
      106.304       497.97
      106.161      516.899
      106.019      536.545
      105.876      556.934
      105.733      578.096
       105.59      600.059
      105.447      622.853
      105.304       646.51
      105.161      671.062
      105.018      696.543
      104.875      722.988
      104.732      750.433
      104.589      778.917
      104.446      808.477
      104.303      839.155
       104.16      870.993
      104.017      904.035
      103.874      938.325
      103.731      973.911
      103.588      1010.84
      103.445      1049.17
      103.302      1088.94
      103.159      1130.22
      103.016      1173.05
      102.874       1217.5
      102.731      1263.63
      102.588       1311.5
      102.445      1361.18
      102.302      1412.73
      102.159      1466.23
      102.016      1521.74
      101.873      1579.35
       101.73      1639.13
      101.587      1701.17
      101.444      1765.54
      101.301      1832.34
      101.158      1901.66
      101.015      1973.59
      100.872      2048.23
      100.729      2125.68
      100.586      2206.06
      100.443      2289.45
        100.3      2375.99
      100.157      2465.79
      100.014      2558.97
      99.8715      2655.65
      99.7285      2755.97
      99.5856      2860.07
      99.4426      2968.09
      99.2996      3080.17
      99.1567      3196.46
      99.0137      3317.13
      98.8708      3442.33
      98.7278      3572.24
      98.5849      3707.04
      98.4419       3846.9
       98.299      3992.02
       98.156      4142.59
       98.013      4298.82
      97.8701      4460.91
      97.7271      4629.09
      97.5842      4803.59
      97.4412      4984.64
      97.2983      5172.49
      97.1553      5367.38
      97.0124       5569.6
      96.8694      5779.39
      96.7264      5997.06
      96.5835       6222.9
      96.4405       6457.2
      96.2976      6700.29
      96.1546      6952.49
      96.0117      7214.15
      95.8687      7485.62
      95.7258      7767.26
      95.5828      8059.45
      95.4398      8362.59
      95.2969      8677.09
      95.1539      9003.36
       95.011      9341.85
       94.868      9693.02
      94.7251      10057.3
      94.5821      10435.3
      94.4392      10827.4
      94.2962      11234.1
      94.1533      11656.1
      94.0103      12093.9
      93.8673        12548
      93.7244      13019.1
      93.5814      13507.9
      93.4385      14014.9
      93.2955      14540.8
      93.1526      15086.4
      93.0096      15652.4
      92.8667      16239.6
      92.7237      16848.6
      92.5807      17480.4
      92.4378      18135.9
      92.2948      18815.7
      92.1519        19521
      92.0089      20252.6
       91.866      21011.5
       91.723      21798.6
      91.5801      22615.2
      91.4371      23462.2
      91.2941      24340.8
      91.1512      25252.2
      91.0082      26197.5
      90.8653      27178.1
      90.7223      28195.2
      90.5794      29250.2
      90.4364      30344.6
      90.2935      31479.7
      90.1505        32657
      90.0075      33878.2
      89.8646      35144.9
      89.7216      36458.7
      89.5787      37821.5
      89.4357      39234.9
      89.2928      40700.9
      89.1498      42221.5
      89.0069      43798.6
      88.8639      45434.4
      88.7209        47131
       88.578      48890.6
       88.435      50715.7
      88.2921      52608.6
      88.1491      54571.8
      88.0062        56608
      87.8632      58719.8
      87.7203        60910
      87.5773      63181.6
      87.4343      65537.5
      87.2914      67980.8
      87.1484      70514.8
      87.0055      73142.9
      86.8625      75868.4
      86.7196      78695.1
      86.5766      81626.6
      86.4337      84666.8
      86.2907      87819.7
      86.1478      91089.4
      86.0048      94480.4
      85.8618        97997
      85.7189       101644
      85.5759       105426
       85.433       109348
        85.29       113415
      85.1471       117633
      85.0041       122007
      84.8612       126543
      84.7182       131247
      84.5752       136125
      84.4323       141183
      84.2893       146428
      84.1464       151868
      84.0034       157508
      83.8605       163357
      83.7175       169422
      83.5746       175711
      83.4316       182233
      83.2886       188995
      83.1457       196007
      83.0027       203278
      82.8598       210818
      82.7168       218636
      82.5739       226742
      82.4309       235148
       82.288       243864
       82.145       252901
       82.002       262271
      81.8591       271987
      81.7161       282061
      81.5732       292507
      81.4302       303337
      81.2873       314567
      81.1443       326210
      81.0014       338282
      80.8584       350798
      80.7154       363776
      80.5725       377231
      80.4295       391182
      80.2866       405645
      80.1436       420641
      80.0007       436189
      79.8577       452308
      79.7148       469021
      79.5718       486347
      79.4288       504311
      79.2859       522934
      79.1429       542242
           79       562260
       78.857       583012
      78.7141       604527
      78.5711       626832
      78.4282       649955
      78.2852       673928
      78.1423       698780
      77.9993       724543
      77.8563       751252
      77.7134       778941
      77.5704       807644
      77.4275       837400
      77.2845       868247
      77.1416       900224
      76.9986       933373
      76.8557       967737
      76.7127  1.00336e+06
      76.5697  1.04028e+06
      76.4268  1.07856e+06
      76.2838  1.11824e+06
      76.1409  1.15937e+06
      75.9979  1.20201e+06
       75.855  1.24621e+06
       75.712  1.29202e+06
      75.5691  1.33951e+06
      75.4261  1.38873e+06
      75.2831  1.43976e+06
      75.1402  1.49265e+06
      74.9972  1.54747e+06
      74.8543   1.6043e+06
      74.7113   1.6632e+06
      74.5684  1.72425e+06
      74.4254  1.78753e+06
      74.2825  1.85312e+06
      74.1395   1.9211e+06
      73.9965  1.99157e+06
      73.8536  2.06461e+06
      73.7106  2.14031e+06
      73.5677  2.21877e+06
      73.4247  2.30009e+06
      73.2818  2.38438e+06
      73.1388  2.47174e+06
      72.9959  2.56228e+06
      72.8529  2.65612e+06
      72.7099  2.75338e+06
       72.567  2.85418e+06
       72.424  2.95865e+06
      72.2811  3.06693e+06
      72.1381  3.17914e+06
      71.9952  3.29544e+06
      71.8522  3.41597e+06
      71.7093  3.54089e+06
      71.5663  3.67034e+06
      71.4234  3.80451e+06
      71.2804  3.94355e+06
      71.1374  4.08764e+06
      70.9945  4.23697e+06
      70.8515  4.39173e+06
      70.7086   4.5521e+06
      70.5656   4.7183e+06
      70.4227  4.89053e+06
      70.2797  5.06902e+06
      70.1368  5.25398e+06
      69.9938  5.44566e+06
      69.8508  5.64429e+06
      69.7079  5.85012e+06
      69.5649  6.06341e+06
       69.422  6.28444e+06
       69.279  6.51348e+06
      69.1361  6.75082e+06
      68.9931  6.99676e+06
      68.8502  7.25161e+06
      68.7072  7.51568e+06
      68.5642  7.78932e+06
      68.4213  8.07286e+06
      68.2783  8.36667e+06
      68.1354  8.67111e+06
      67.9924  8.98656e+06
      67.8495  9.31342e+06
      67.7065  9.65209e+06
      67.5636   1.0003e+07
      67.4206  1.03666e+07
      67.2776  1.07434e+07
      67.1347  1.11337e+07
      66.9917  1.15382e+07
      66.8488  1.19573e+07
      66.7058  1.23915e+07
      66.5629  1.28413e+07
      66.4199  1.33074e+07
       66.277  1.37904e+07
       66.134  1.42907e+07
       65.991  1.48091e+07
      65.8481  1.53462e+07
      65.7051  1.59027e+07
      65.5622  1.64792e+07
      65.4192  1.70764e+07
      65.2763  1.76952e+07
      65.1333  1.83363e+07
      64.9904  1.90005e+07
      64.8474  1.96886e+07
      64.7044  2.04014e+07
      64.5615    2.114e+07
      64.4185   2.1905e+07
      64.2756  2.26976e+07
      64.1326  2.35187e+07
      63.9897  2.43694e+07
      63.8467  2.52506e+07
      63.7038  2.61635e+07
      63.5608  2.71091e+07
      63.4179  2.80888e+07
      63.2749  2.91036e+07
      63.1319  3.01549e+07
       62.989  3.12439e+07
       62.846   3.2372e+07
      62.7031  3.35405e+07
      62.5601   3.4751e+07
      62.4172  3.60049e+07
      62.2742  3.73038e+07
      62.1313  3.86492e+07
      61.9883  4.00429e+07
      61.8453  4.14864e+07
      61.7024  4.29817e+07
      61.5594  4.45306e+07
      61.4165  4.61349e+07
      61.2735  4.77966e+07
      61.1306  4.95178e+07
      60.9876  5.13007e+07
      60.8447  5.31472e+07
      60.7017  5.50599e+07
      60.5587  5.70409e+07
      60.4158  5.90927e+07
      60.2728  6.12179e+07
      60.1299   6.3419e+07
      59.9869  6.56987e+07
       59.844  6.80598e+07
       59.701  7.05053e+07
      59.5581   7.3038e+07
      59.4151  7.56612e+07
      59.2721  7.83779e+07
      59.1292  8.11915e+07
      58.9862  8.41055e+07
      58.8433  8.71234e+07
      58.7003  9.02488e+07
      58.5574  9.34857e+07
      58.4144  9.68378e+07
      58.2715  1.00309e+08
      58.1285  1.03905e+08
      57.9855  1.07628e+08
      57.8426  1.11483e+08
      57.6996  1.15476e+08
      57.5567  1.19611e+08
      57.4137  1.23893e+08
      57.2708  1.28328e+08
      57.1278   1.3292e+08
      56.9849  1.37675e+08
      56.8419  1.42599e+08
      56.6989  1.47698e+08
       56.556  1.52978e+08
       56.413  1.58446e+08
      56.2701  1.64107e+08
      56.1271   1.6997e+08
      55.9842   1.7604e+08
      55.8412  1.82326e+08
      55.6983  1.88835e+08
      55.5553  1.95575e+08
      55.4124  2.02553e+08
      55.2694  2.09779e+08
      55.1264  2.17261e+08
      54.9835  2.25007e+08
      54.8405  2.33028e+08
      54.6976  2.41333e+08
      54.5546  2.49932e+08
      54.4117  2.58835e+08
      54.2687  2.68053e+08
      54.1258  2.77597e+08
      53.9828  2.87478e+08
      53.8398  2.97708e+08
      53.6969    3.083e+08
      53.5539  3.19267e+08
       53.411   3.3062e+08
       53.268  3.42375e+08
      53.1251  3.54544e+08
      52.9821  3.67142e+08
      52.8392  3.80186e+08
      52.6962  3.93689e+08
      52.5532  4.07668e+08
      52.4103   4.2214e+08
      52.2673  4.37122e+08
      52.1244  4.52632e+08
      51.9814  4.68689e+08
      51.8385   4.8531e+08
      51.6955  5.02517e+08
      51.5526   5.2033e+08
      51.4096  5.38769e+08
      51.2666  5.57857e+08
      51.1237  5.77616e+08
      50.9807   5.9807e+08
      50.8378  6.19243e+08
      50.6948  6.41159e+08
      50.5519  6.63846e+08
      50.4089  6.87329e+08
       50.266  7.11637e+08
       50.123  7.36798e+08
        49.98  7.62842e+08
      49.8371    7.898e+08
      49.6941  8.17703e+08
      49.5512  8.46585e+08
      49.4082  8.76478e+08
      49.2653   9.0742e+08
      49.1223  9.39445e+08
      48.9794  9.72592e+08
      48.8364   1.0069e+09
      48.6935  1.04241e+09
      48.5505  1.07916e+09
      48.4075   1.1172e+09
      48.2646  1.15656e+09
      48.1216  1.19731e+09
      47.9787  1.23947e+09
      47.8357  1.28312e+09
      47.6928  1.32828e+09
      47.5498  1.37503e+09
      47.4069   1.4234e+09
      47.2639  1.47346e+09
      47.1209  1.52528e+09
       46.978  1.57889e+09
       46.835  1.63438e+09
      46.6921   1.6918e+09
      46.5491  1.75123e+09
      46.4062  1.81272e+09
      46.2632  1.87636e+09
      46.1203  1.94222e+09
      45.9773  2.01036e+09
      45.8343  2.08088e+09
      45.6914  2.15385e+09
      45.5484  2.22936e+09
      45.4055   2.3075e+09
      45.2625  2.38835e+09
      45.1196  2.47201e+09
      44.9766  2.55858e+09
      44.8337  2.64816e+09
      44.6907  2.74084e+09
      44.5477  2.83675e+09
      44.4048  2.93598e+09
      44.2618  3.03865e+09
      44.1189  3.14489e+09
      43.9759  3.25481e+09
       43.833  3.36854e+09
        43.69  3.48621e+09
      43.5471  3.60795e+09
      43.4041  3.73391e+09
      43.2611  3.86424e+09
      43.1182  3.99907e+09
      42.9752  4.13857e+09
      42.8323  4.28289e+09
      42.6893   4.4322e+09
      42.5464  4.58668e+09
      42.4034  4.74649e+09
      42.2605  4.91183e+09
      42.1175  5.08287e+09
      41.9745  5.25982e+09
      41.8316  5.44288e+09
      41.6886  5.63225e+09
      41.5457  5.82815e+09
      41.4027  6.03081e+09
      41.2598  6.24046e+09
      41.1168  6.45733e+09
      40.9739  6.68167e+09
      40.8309  6.91374e+09
       40.688  7.15379e+09
       40.545  7.40211e+09
       40.402  7.65898e+09
      40.2591  7.92467e+09
      40.1161  8.19951e+09
      39.9732  8.48379e+09
      39.8302  8.77784e+09
      39.6873  9.08199e+09
      39.5443  9.39659e+09
      39.4014  9.72198e+09
      39.2584  1.00585e+10
      39.1154  1.04067e+10
      38.9725  1.07667e+10
      38.8295  1.11391e+10
      38.6866  1.15243e+10
      38.5436  1.19226e+10
      38.4007  1.23346e+10
      38.2577  1.27607e+10
      38.1148  1.32014e+10
      37.9718  1.36572e+10
      37.8288  1.41285e+10
      37.6859   1.4616e+10
      37.5429  1.51202e+10
         37.4  1.56415e+10
       37.257  1.61807e+10
      37.1141  1.67383e+10
      36.9711   1.7315e+10
      36.8282  1.79113e+10
      36.6852  1.85279e+10
      36.5422  1.91656e+10
      36.3993   1.9825e+10
      36.2563  2.05069e+10
      36.1134  2.12121e+10
      35.9704  2.19412e+10
      35.8275  2.26952e+10
      35.6845  2.34749e+10
      35.5416   2.4281e+10
      35.3986  2.51146e+10
