Temperature = 1650.82K
THERMAL DISTRIBUTIONS:
  E, kcal/mol           W1
      144.708    0.0957574
      144.565    0.0993739
      144.422     0.103127
      144.279     0.107021
      144.136     0.111061
      143.993     0.115254
       143.85     0.119605
      143.707      0.12412
      143.564     0.128804
      143.421     0.133665
      143.278     0.138709
      143.135     0.143942
      142.993     0.149373
       142.85     0.155007
      142.707     0.160854
      142.564     0.166921
      142.421     0.173216
      142.278     0.179747
      142.135     0.186525
      141.992     0.193557
      141.849     0.200853
      141.706     0.208424
      141.563     0.216279
       141.42      0.22443
      141.277     0.232887
      141.134     0.241662
      140.991     0.250766
      140.848     0.260212
      140.705     0.270014
      140.562     0.280183
      140.419     0.290735
      140.276     0.301682
      140.133     0.313041
       139.99     0.324826
      139.847     0.337054
      139.705     0.349741
      139.562     0.362904
      139.419      0.37656
      139.276      0.39073
      139.133     0.405431
       138.99     0.420684
      138.847     0.436508
      138.704     0.452927
      138.561     0.469961
      138.418     0.487634
      138.275      0.50597
      138.132     0.524993
      137.989      0.54473
      137.846     0.565206
      137.703      0.58645
       137.56      0.60849
      137.417     0.631356
      137.274     0.655079
      137.131     0.679691
      136.988     0.705224
      136.845     0.731715
      136.702     0.759197
       136.56     0.787708
      136.417     0.817288
      136.274     0.847974
      136.131      0.87981
      135.988     0.912837
      135.845     0.947101
      135.702     0.982647
      135.559      1.01952
      135.416      1.05778
      135.273      1.09747
       135.13      1.13864
      134.987      1.18135
      134.844      1.22566
      134.701      1.27163
      134.558      1.31931
      134.415      1.36878
      134.272       1.4201
      134.129      1.47333
      133.986      1.52856
      133.843      1.58585
        133.7      1.64528
      133.557      1.70693
      133.415      1.77089
      133.272      1.83723
      133.129      1.90605
      132.986      1.97745
      132.843       2.0515
        132.7      2.12833
      132.557      2.20802
      132.414      2.29069
      132.271      2.37644
      132.128      2.46539
      131.985      2.55767
      131.842      2.65338
      131.699      2.75267
      131.556      2.85566
      131.413      2.96249
       131.27      3.07331
      131.127      3.18826
      130.984       3.3075
      130.841      3.43118
      130.698      3.55947
      130.555      3.69255
      130.412      3.83059
      130.269      3.97377
      130.127      4.12228
      129.984      4.27633
      129.841      4.43612
      129.698      4.60186
      129.555      4.77378
      129.412      4.95209
      129.269      5.13705
      129.126      5.32889
      128.983      5.52788
       128.84      5.73427
      128.697      5.94835
      128.554      6.17039
      128.411      6.40069
      128.268      6.63957
      128.125      6.88733
      127.982      7.14431
      127.839      7.41084
      127.696      7.68729
      127.553      7.97402
       127.41      8.27141
      127.267      8.57986
      127.124      8.89977
      126.982      9.23157
      126.839      9.57571
      126.696      9.93263
      126.553      10.3028
       126.41      10.6868
      126.267       11.085
      126.124      11.4979
      125.981      11.9263
      125.838      12.3705
      125.695      12.8312
      125.552      13.3091
      125.409      13.8046
      125.266      14.3186
      125.123      14.8516
       124.98      15.4044
      124.837      15.9778
      124.694      16.5724
      124.551       17.189
      124.408      17.8285
      124.265      18.4918
      124.122      19.1796
      123.979      19.8929
      123.836      20.6327
      123.694      21.3999
      123.551      22.1955
      123.408      23.0206
      123.265      23.8763
      123.122      24.7637
      122.979       25.684
      122.836      26.6383
      122.693       27.628
       122.55      28.6544
      122.407      29.7187
      122.264      30.8225
      122.121      31.9671
      121.978      33.1541
      121.835       34.385
      121.692      35.6614
      121.549      36.9851
      121.406      38.3577
      121.263      39.7811
       121.12      41.2572
      120.977      42.7878
      120.834      44.3751
      120.691       46.021
      120.549      47.7278
      120.406      49.4976
      120.263      51.3329
       120.12       53.236
      119.977      55.2094
      119.834      57.2557
      119.691      59.3775
      119.548      61.5778
      119.405      63.8593
      119.262      66.2251
      119.119      68.6781
      118.976      71.2218
      118.833      73.8593
       118.69      76.5942
      118.547        79.43
      118.404      82.3705
      118.261      85.4194
      118.118      88.5807
      117.975      91.8587
      117.832      95.2576
      117.689      98.7818
      117.546      102.436
      117.404      106.225
      117.261      110.153
      117.118      114.226
      116.975       118.45
      116.832      122.829
      116.689      127.369
      116.546      132.076
      116.403      136.957
       116.26      142.018
      116.117      147.265
      115.974      152.705
      115.831      158.345
      115.688      164.193
      115.545      170.257
      115.402      176.543
      115.259      183.061
      115.116      189.818
      114.973      196.824
       114.83      204.087
      114.687      211.618
      114.544      219.425
      114.401       227.52
      114.258      235.912
      114.116      244.613
      113.973      253.633
       113.83      262.985
      113.687       272.68
      113.544      282.731
      113.401      293.152
      113.258      303.955
      113.115      315.155
      112.972      326.766
      112.829      338.803
      112.686      351.282
      112.543      364.219
        112.4      377.631
      112.257      391.535
      112.114      405.949
      111.971      420.891
      111.828      436.382
      111.685       452.44
      111.542      469.088
      111.399      486.345
      111.256      504.235
      111.113      522.781
      110.971      542.006
      110.828      561.936
      110.685      582.596
      110.542      604.013
      110.399      626.213
      110.256      649.227
      110.113      673.084
       109.97      697.814
      109.827      723.449
      109.684      750.022
      109.541      777.567
      109.398      806.121
      109.255      835.719
      109.112      866.399
      108.969      898.202
      108.826      931.168
      108.683      965.339
       108.54      1000.76
      108.397      1037.47
      108.254      1075.53
      108.111      1114.98
      107.968      1155.87
      107.825      1198.25
      107.683      1242.18
       107.54      1287.71
      107.397      1334.91
      107.254      1383.83
      107.111      1434.54
      106.968      1487.09
      106.825      1541.57
      106.682      1598.03
      106.539      1656.56
      106.396      1717.21
      106.253      1780.08
       106.11      1845.25
      105.967      1912.79
      105.824      1982.79
      105.681      2055.34
      105.538      2130.54
      105.395      2208.48
      105.252      2289.26
      105.109      2372.98
      104.966      2459.75
      104.823      2549.68
       104.68      2642.88
      104.538      2739.48
      104.395       2839.6
      104.252      2943.36
      104.109       3050.9
      103.966      3162.35
      103.823      3277.85
       103.68      3397.56
      103.537      3521.62
      103.394      3650.19
      103.251      3783.44
      103.108      3921.53
      102.965      4064.64
      102.822      4212.96
      102.679      4366.66
      102.536      4525.95
      102.393      4691.02
       102.25      4862.09
      102.107      5039.38
      101.964       5223.1
      101.821      5413.49
      101.678       5610.8
      101.535      5815.26
      101.393      6027.15
       101.25      6246.72
      101.107      6474.26
      100.964      6710.06
      100.821      6954.41
      100.678      7207.62
      100.535         7470
      100.392      7741.91
      100.249      8023.66
      100.106      8315.63
       99.963      8618.18
        99.82      8931.69
       99.677      9256.56
      99.5341      9593.19
      99.3911      9942.01
      99.2482      10303.5
      99.1052        10678
      98.9623      11066.1
      98.8193      11468.2
      98.6764      11884.9
      98.5334      12316.7
      98.3904      12764.1
      98.2475      13227.7
      98.1045        13708
      97.9616      14205.7
      97.8186      14721.4
      97.6757      15255.7
      97.5327      15809.4
      97.3898        16383
      97.2468      16977.4
      97.1038      17593.3
      96.9609      18231.4
      96.8179      18892.5
       96.675      19577.5
       96.532      20287.2
      96.3891      21022.6
      96.2461      21784.5
      96.1032      22573.9
      95.9602      23391.7
      95.8173      24239.1
      95.6743        25117
      95.5313      26026.6
      95.3884      26968.9
      95.2454      27945.3
      95.1025      28956.8
      94.9595      30004.8
      94.8166      31090.6
      94.6736      32215.4
      94.5307      33380.8
      94.3877      34588.1
      94.2447        35839
      94.1018      37134.8
      93.9588      38477.3
      93.8159      39868.1
      93.6729        41309
        93.53      42801.7
       93.387        44348
      93.2441      45950.1
      93.1011      47609.7
      92.9581        49329
      92.8152        51110
      92.6722      52955.1
      92.5293      54866.6
      92.3863      56846.6
      92.2434      58897.9
      92.1004      61022.8
      91.9575        63224
      91.8145      65504.2
      91.6715      67866.3
      91.5286      70313.2
      91.3856      72847.9
      91.2427      75473.5
      91.0997      78193.4
      90.9568      81010.8
      90.8138      83929.2
      90.6709      86952.3
      90.5279      90083.8
      90.3849      93327.6
       90.242      96687.5
       90.099       100168
      89.9561       103773
      89.8131       107507
      89.6702       111375
      89.5272       115382
      89.3843       119532
      89.2413       123830
      89.0983       128282
      88.9554       132894
      88.8124       137670
      88.6695       142618
      88.5265       147742
      88.3836       153050
      88.2406       158547
      88.0977       164241
      87.9547       170139
      87.8118       176247
      87.6688       182573
      87.5258       189126
      87.3829       195912
      87.2399       202941
       87.097       210221
       86.954       217760
      86.8111       225569
      86.6681       233656
      86.5252       242032
      86.3822       250706
      86.2392       259690
      86.0963       268995
      85.9533       278631
      85.8104       288610
      85.6674       298945
      85.5245       309649
      85.3815       320733
      85.2386       332213
      85.0956       344101
      84.9526       356413
      84.8097       369163
      84.6667       382367
      84.5238       396040
      84.3808       410201
      84.2379       424864
      84.0949       440050
       83.952       455776
       83.809       472060
       83.666       488924
      83.5231       506387
      83.3801       524470
      83.2372       543196
      83.0942       562587
      82.9513       582667
      82.8083       603460
      82.6654       624991
      82.5224       647286
      82.3794       670372
      82.2365       694278
      82.0935       719031
      81.9506       744663
      81.8076       771204
      81.6647       798685
      81.5217       827141
      81.3788       856606
      81.2358       887114
      81.0929       918703
      80.9499       951412
      80.8069       985278
       80.664  1.02034e+06
       80.521  1.05665e+06
      80.3781  1.09424e+06
      80.2351  1.13317e+06
      80.0922  1.17347e+06
      79.9492  1.21519e+06
      79.8063  1.25839e+06
      79.6633  1.30312e+06
      79.5203  1.34943e+06
      79.3774  1.39738e+06
      79.2344  1.44702e+06
      79.0915  1.49842e+06
      78.9485  1.55163e+06
      78.8056  1.60672e+06
      78.6626  1.66375e+06
      78.5197   1.7228e+06
      78.3767  1.78394e+06
      78.2337  1.84723e+06
      78.0908  1.91276e+06
      77.9478  1.98059e+06
      77.8049  2.05082e+06
      77.6619  2.12353e+06
       77.519   2.1988e+06
       77.376  2.27672e+06
      77.2331  2.35739e+06
      77.0901   2.4409e+06
      76.9471  2.52735e+06
      76.8042  2.61685e+06
      76.6612   2.7095e+06
      76.5183  2.80542e+06
      76.3753  2.90471e+06
      76.2324  3.00749e+06
      76.0894  3.11389e+06
      75.9465  3.22403e+06
      75.8035  3.33805e+06
      75.6605  3.45608e+06
      75.5176  3.57825e+06
      75.3746  3.70472e+06
      75.2317  3.83564e+06
      75.0887  3.97116e+06
      74.9458  4.11143e+06
      74.8028  4.25664e+06
      74.6599  4.40694e+06
      74.5169  4.56252e+06
      74.3739  4.72356e+06
       74.231  4.89025e+06
       74.088  5.06279e+06
      73.9451  5.24139e+06
      73.8021  5.42625e+06
      73.6592  5.61759e+06
      73.5162  5.81563e+06
      73.3733  6.02062e+06
      73.2303   6.2328e+06
      73.0874   6.4524e+06
      72.9444   6.6797e+06
      72.8014  6.91496e+06
      72.6585  7.15846e+06
      72.5155  7.41048e+06
      72.3726  7.67132e+06
      72.2296  7.94129e+06
      72.0867   8.2207e+06
      71.9437  8.50989e+06
      71.8008  8.80919e+06
      71.6578  9.11895e+06
      71.5148  9.43954e+06
      71.3719  9.77134e+06
      71.2289  1.01147e+07
       71.086  1.04701e+07
       70.943  1.08379e+07
      70.8001  1.12185e+07
      70.6571  1.16125e+07
      70.5142  1.20201e+07
      70.3712   1.2442e+07
      70.2282  1.28787e+07
      70.0853  1.33305e+07
      69.9423  1.37981e+07
      69.7994   1.4282e+07
      69.6564  1.47828e+07
      69.5135   1.5301e+07
      69.3705  1.58373e+07
      69.2276  1.63923e+07
      69.0846  1.69666e+07
      68.9416  1.75609e+07
      68.7987  1.81758e+07
      68.6557  1.88122e+07
      68.5128  1.94707e+07
      68.3698  2.01522e+07
      68.2269  2.08573e+07
      68.0839   2.1587e+07
       67.941   2.2342e+07
       67.798  2.31232e+07
       67.655  2.39317e+07
      67.5121  2.47682e+07
      67.3691  2.56337e+07
      67.2262  2.65293e+07
      67.0832   2.7456e+07
      66.9403  2.84149e+07
      66.7973   2.9407e+07
      66.6544  3.04336e+07
      66.5114  3.14958e+07
      66.3684  3.25948e+07
      66.2255  3.37319e+07
      66.0825  3.49084e+07
      65.9396  3.61257e+07
      65.7966  3.73852e+07
      65.6537  3.86883e+07
      65.5107  4.00365e+07
      65.3678  4.14314e+07
      65.2248  4.28746e+07
      65.0819  4.43678e+07
      64.9389  4.59126e+07
      64.7959  4.75108e+07
       64.653  4.91643e+07
        64.51   5.0875e+07
      64.3671  5.26448e+07
      64.2241  5.44758e+07
      64.0812    5.637e+07
      63.9382  5.83297e+07
      63.7953   6.0357e+07
      63.6523  6.24544e+07
      63.5093  6.46241e+07
      63.3664  6.68688e+07
      63.2234  6.91908e+07
      63.0805   7.1593e+07
      62.9375   7.4078e+07
      62.7946  7.66487e+07
      62.6516   7.9308e+07
      62.5087  8.20589e+07
      62.3657  8.49046e+07
      62.2227  8.78484e+07
      62.0798  9.08935e+07
      61.9368  9.40434e+07
      61.7939  9.73017e+07
      61.6509  1.00672e+08
       61.508  1.04159e+08
       61.365  1.07765e+08
      61.2221  1.11495e+08
      61.0791  1.15354e+08
      60.9361  1.19345e+08
      60.7932  1.23474e+08
      60.6502  1.27744e+08
      60.5073  1.32161e+08
      60.3643  1.36729e+08
      60.2214  1.41454e+08
      60.0784  1.46342e+08
      59.9355  1.51397e+08
      59.7925  1.56626e+08
      59.6495  1.62034e+08
      59.5066  1.67627e+08
      59.3636  1.73412e+08
      59.2207  1.79395e+08
      59.0777  1.85583e+08
      58.9348  1.91983e+08
      58.7918  1.98603e+08
      58.6489  2.05449e+08
      58.5059  2.12529e+08
      58.3629  2.19851e+08
        58.22  2.27424e+08
       58.077  2.35256e+08
      57.9341  2.43356e+08
      57.7911  2.51733e+08
      57.6482  2.60395e+08
      57.5052  2.69354e+08
      57.3623  2.78619e+08
      57.2193    2.882e+08
      57.0764  2.98108e+08
      56.9334  3.08355e+08
      56.7904  3.18951e+08
      56.6475  3.29908e+08
      56.5045  3.41239e+08
      56.3616  3.52956e+08
      56.2186  3.65073e+08
      56.0757  3.77603e+08
      55.9327  3.90559e+08
      55.7898  4.03957e+08
      55.6468  4.17811e+08
      55.5038  4.32136e+08
      55.3609  4.46949e+08
      55.2179  4.62266e+08
       55.075  4.78104e+08
       54.932   4.9448e+08
      54.7891  5.11414e+08
      54.6461  5.28922e+08
      54.5032  5.47026e+08
      54.3602  5.65744e+08
      54.2172  5.85098e+08
      54.0743  6.05109e+08
      53.9313    6.258e+08
      53.7884  6.47192e+08
      53.6454   6.6931e+08
      53.5025  6.92178e+08
      53.3595  7.15822e+08
      53.2166  7.40266e+08
      53.0736  7.65539e+08
      52.9306  7.91669e+08
      52.7877  8.18683e+08
      52.6447  8.46611e+08
      52.5018  8.75485e+08
      52.3588  9.05337e+08
      52.2159  9.36198e+08
      52.0729  9.68102e+08
        51.93  1.00109e+09
       51.787  1.03518e+09
       51.644  1.07043e+09
      51.5011  1.10688e+09
      51.3581  1.14455e+09
      51.2152  1.18349e+09
      51.0722  1.22375e+09
      50.9293  1.26537e+09
      50.7863  1.30839e+09
      50.6434  1.35286e+09
      50.5004  1.39883e+09
      50.3575  1.44635e+09
      50.2145  1.49547e+09
      50.0715  1.54625e+09
      49.9286  1.59874e+09
      49.7856  1.65299e+09
      49.6427  1.70907e+09
      49.4997  1.76704e+09
      49.3568  1.82695e+09
      49.2138  1.88889e+09
      49.0709   1.9529e+09
      48.9279  2.01907e+09
      48.7849  2.08745e+09
       48.642  2.15814e+09
       48.499   2.2312e+09
      48.3561  2.30671e+09
      48.2131  2.38476e+09
      48.0702  2.46542e+09
      47.9272  2.54879e+09
      47.7843  2.63496e+09
      47.6413  2.72401e+09
      47.4983  2.81605e+09
      47.3554  2.91117e+09
      47.2124  3.00948e+09
      47.0695  3.11108e+09
      46.9265  3.21608e+09
      46.7836   3.3246e+09
      46.6406  3.43674e+09
      46.4977  3.55263e+09
      46.3547   3.6724e+09
      46.2117  3.79617e+09
      46.0688  3.92408e+09
      45.9258  4.05626e+09
      45.7829  4.19285e+09
      45.6399    4.334e+09
       45.497  4.47987e+09
       45.354  4.63059e+09
      45.2111  4.78635e+09
      45.0681   4.9473e+09
      44.9251  5.11361e+09
      44.7822  5.28546e+09
      44.6392  5.46304e+09
      44.4963  5.64653e+09
      44.3533  5.83613e+09
      44.2104  6.03204e+09
      44.0674  6.23447e+09
      43.9245  6.44363e+09
      43.7815  6.65974e+09
      43.6385  6.88304e+09
      43.4956  7.11376e+09
      43.3526  7.35214e+09
      43.2097  7.59843e+09
      43.0667   7.8529e+09
      42.9238  8.11582e+09
      42.7808  8.38745e+09
      42.6379   8.6681e+09
      42.4949  8.95805e+09
       42.352  9.25761e+09
       42.209  9.56709e+09
       42.066  9.88683e+09
      41.9231  1.02171e+10
      41.7801  1.05584e+10
      41.6372  1.09109e+10
      41.4942  1.12752e+10
      41.3513  1.16514e+10
      41.2083  1.20401e+10
      41.0654  1.24416e+10
      40.9224  1.28564e+10
      40.7794  1.32849e+10
      40.6365  1.37276e+10
      40.4935  1.41848e+10
      40.3506  1.46572e+10
      40.2076  1.51451e+10
      40.0647  1.56491e+10
      39.9217  1.61697e+10
      39.7788  1.67074e+10
      39.6358  1.72629e+10
      39.4928  1.78367e+10
      39.3499  1.84294e+10
