Temperature = 1054.9K
THERMAL DISTRIBUTIONS:
  E, kcal/mol           W1
      97.3412  4.55283e-06
      97.1982  4.83559e-06
      97.0552  5.13587e-06
      96.9123  5.45478e-06
      96.7693  5.79346e-06
      96.6264  6.15313e-06
      96.4834  6.53509e-06
      96.3405  6.94073e-06
      96.1975  7.37151e-06
      96.0546  7.82898e-06
      95.9116   8.3148e-06
      95.7686  8.83072e-06
      95.6257   9.3786e-06
      95.4827  9.96042e-06
      95.3398  1.05783e-05
      95.1968  1.12344e-05
      95.0539  1.19312e-05
      94.9109   1.2671e-05
       94.768  1.34568e-05
       94.625  1.42911e-05
       94.482  1.51771e-05
      94.3391  1.61179e-05
      94.1961   1.7117e-05
      94.0532  1.81779e-05
      93.9102  1.93045e-05
      93.7673  2.05007e-05
      93.6243   2.1771e-05
      93.4814  2.31198e-05
      93.3384  2.45521e-05
      93.1954   2.6073e-05
      93.0525  2.76879e-05
      92.9095  2.94027e-05
      92.7666  3.12235e-05
      92.6236  3.31569e-05
      92.4807  3.52098e-05
      92.3377  3.73896e-05
      92.1948  3.97041e-05
      92.0518  4.21617e-05
      91.9089  4.47711e-05
      91.7659  4.75418e-05
      91.6229  5.04837e-05
        91.48  5.36073e-05
       91.337  5.69238e-05
      91.1941  6.04452e-05
      91.0511  6.41841e-05
      90.9082  6.81539e-05
      90.7652  7.23688e-05
      90.6223  7.68439e-05
      90.4793  8.15953e-05
      90.3363    8.664e-05
      90.1934  9.19961e-05
      90.0504  9.76827e-05
      89.9075   0.00010372
      89.7645   0.00011013
      89.6216  0.000116936
      89.4786  0.000124161
      89.3357  0.000131832
      89.1927  0.000139977
      89.0497  0.000148623
      88.9068  0.000157803
      88.7638  0.000167549
      88.6209  0.000177895
      88.4779   0.00018888
       88.335  0.000200542
       88.192  0.000212922
      88.0491  0.000226065
      87.9061  0.000240019
      87.7631  0.000254832
      87.6202  0.000270557
      87.4772  0.000287252
      87.3343  0.000304975
      87.1913  0.000323789
      87.0484  0.000343762
      86.9054  0.000364965
      86.7625  0.000387473
      86.6195  0.000411368
      86.4765  0.000436733
      86.3336  0.000463659
      86.1906  0.000492243
      86.0477  0.000522586
      85.9047  0.000554795
      85.7618  0.000588987
      85.6188  0.000625282
      85.4759   0.00066381
      85.3329  0.000704707
        85.19   0.00074812
       85.047  0.000794203
       84.904  0.000843119
      84.7611  0.000895042
      84.6181  0.000950157
      84.4752   0.00100866
      84.3322   0.00107076
      84.1893   0.00113668
      84.0463   0.00120664
      83.9034   0.00128091
      83.7604   0.00135973
      83.6174    0.0014434
      83.4745   0.00153221
      83.3315   0.00162648
      83.1886   0.00172653
      83.0456   0.00183272
      82.9027   0.00194544
      82.7597   0.00206507
      82.6168   0.00219205
      82.4738   0.00232683
      82.3308   0.00246987
      82.1879   0.00262169
      82.0449   0.00278283
       81.902   0.00295385
       81.759   0.00313536
      81.6161   0.00332801
      81.4731   0.00353247
      81.3302   0.00374947
      81.1872   0.00397977
      81.0442    0.0042242
      80.9013   0.00448361
      80.7583   0.00475892
      80.6154    0.0050511
      80.4724   0.00536119
      80.3295   0.00569028
      80.1865   0.00603953
      80.0436   0.00641018
      79.9006   0.00680354
      79.7576   0.00722098
      79.6147   0.00766399
      79.4717   0.00813413
      79.3288   0.00863305
      79.1858   0.00916252
      79.0429    0.0097244
      78.8999    0.0103207
       78.757    0.0109534
       78.614    0.0116249
       78.471    0.0123375
      78.3281    0.0130937
      78.1851    0.0138961
      78.0422    0.0147476
      77.8992    0.0156511
      77.7563      0.01661
      77.6133    0.0176274
      77.4704    0.0187071
      77.3274    0.0198528
      77.1845    0.0210685
      77.0415    0.0223585
      76.8985    0.0237273
      76.7556    0.0251797
      76.6126    0.0267209
      76.4697    0.0283563
      76.3267    0.0300915
      76.1838    0.0319327
      76.0408    0.0338864
      75.8979    0.0359593
      75.7549    0.0381588
      75.6119    0.0404926
       75.469    0.0429688
       75.326    0.0455962
      75.1831    0.0483839
      75.0401    0.0513416
      74.8972    0.0544799
      74.7542    0.0578095
      74.6113    0.0613423
      74.4683    0.0650905
      74.3253    0.0690673
      74.1824    0.0732866
      74.0394    0.0777631
      73.8965    0.0825124
      73.7535    0.0875513
      73.6106    0.0928973
      73.4676     0.098569
      73.3247     0.104586
      73.1817      0.11097
      73.0387     0.117743
      72.8958     0.124928
      72.7528     0.132551
      72.6099     0.140638
      72.4669     0.149218
       72.324     0.158319
       72.181     0.167975
      72.0381     0.178218
      71.8951     0.189085
      71.7521     0.200613
      71.6092     0.212843
      71.4662     0.225816
      71.3233     0.239579
      71.1803     0.254178
      71.0374     0.269665
      70.8944     0.286094
      70.7515     0.303522
      70.6085     0.322009
      70.4655      0.34162
      70.3226     0.362423
      70.1796      0.38449
      70.0367     0.407897
      69.8937     0.432727
      69.7508     0.459065
      69.6078     0.487002
      69.4649     0.516636
      69.3219     0.548069
       69.179     0.581411
       69.036     0.616777
       68.893     0.654289
      68.7501     0.694078
      68.6071     0.736282
      68.4642     0.781046
      68.3212     0.828526
      68.1783     0.878885
      68.0353     0.932299
      67.8924     0.988953
      67.7494      1.04904
      67.6064      1.11277
      67.4635      1.18037
      67.3205      1.25206
      67.1776       1.3281
      67.0346      1.40874
      66.8917      1.49427
      66.7487      1.58498
      66.6058      1.68119
      66.4628      1.78322
      66.3198      1.89143
      66.1769       2.0062
      66.0339      2.12791
       65.891      2.25699
       65.748      2.39388
      65.6051      2.53906
      65.4621      2.69302
      65.3192      2.85629
      65.1762      3.02945
      65.0332      3.21307
      64.8903       3.4078
      64.7473      3.61431
      64.6044       3.8333
      64.4614      4.06553
      64.3185       4.3118
      64.1755      4.57295
      64.0326      4.84988
      63.8896      5.14354
      63.7466      5.45495
      63.6037      5.78516
      63.4607      6.13532
      63.3178      6.50662
      63.1748      6.90035
      63.0319      7.31784
      62.8889      7.76053
       62.746      8.22994
       62.603      8.72768
      62.4601      9.25545
      62.3171      9.81506
      62.1741      10.4084
      62.0312      11.0376
      61.8882      11.7047
      61.7453       12.412
      61.6023       13.162
      61.4594      13.9571
      61.3164      14.8002
      61.1735      15.6942
      61.0305      16.6419
      60.8875      17.6468
      60.7446      18.7122
      60.6016      19.8418
      60.4587      21.0394
      60.3157      22.3091
      60.1728      23.6552
      60.0298      25.0824
      59.8869      26.5955
      59.7439      28.1996
      59.6009      29.9002
       59.458      31.7032
       59.315      33.6146
      59.1721       35.641
      59.0291      37.7892
      58.8862      40.0666
      58.7432       42.481
      58.6003      45.0404
      58.4573      47.7537
      58.3143        50.63
      58.1714      53.6791
      58.0284      56.9114
      57.8855      60.3379
      57.7425      63.9702
      57.5996      67.8205
      57.4566      71.9021
      57.3137      76.2287
      57.1707      80.8149
      57.0277      85.6764
      56.8848      90.8296
      56.7418       96.292
      56.5989      102.082
      56.4559      108.219
       56.313      114.725
        56.17       121.62
      56.0271      128.929
      55.8841      136.676
      55.7411      144.887
      55.5982      153.591
      55.4552      162.816
      55.3123      172.593
      55.1693      182.956
      55.0264       193.94
      54.8834      205.581
      54.7405       217.92
      54.5975      230.997
      54.4546      244.857
      54.3116      259.546
      54.1686      275.114
      54.0257      291.613
      53.8827        309.1
      53.7398      327.632
      53.5968      347.272
      53.4539      368.087
      53.3109      390.146
       53.168      413.524
       53.025      438.298
       52.882      464.553
      52.7391      492.376
      52.5961      521.862
      52.4532      553.108
      52.3102      586.221
      52.1673       621.31
      52.0243      658.494
      51.8814      697.897
      51.7384      739.652
      51.5954      783.899
      51.4525      830.785
      51.3095      880.467
      51.1666      933.113
      51.0236      988.898
      50.8807      1048.01
      50.7377      1110.64
      50.5948      1177.01
      50.4518      1247.33
      50.3088      1321.85
      50.1659       1400.8
      50.0229      1484.45
        49.88      1573.09
       49.737      1667.01
      49.5941      1766.51
      49.4511      1871.94
      49.3082      1983.64
      49.1652      2101.99
      49.0222      2227.38
      48.8793      2360.24
      48.7363      2500.99
      48.5934      2650.11
      48.4504       2808.1
      48.3075      2975.48
      48.1645      3152.81
      48.0216      3340.68
      47.8786      3539.71
      47.7356      3750.56
      47.5927      3973.94
      47.4497      4210.59
      47.3068      4461.29
      47.1638      4726.87
      47.0209      5008.21
      46.8779      5306.25
       46.735      5621.98
       46.592      5956.44
      46.4491      6310.74
      46.3061      6686.05
      46.1631      7083.62
      46.0202      7504.76
      45.8772      7950.86
      45.7343      8423.41
      45.5913      8923.95
      45.4484      9454.15
      45.3054      10015.8
      45.1625      10610.6
      45.0195      11240.7
      44.8765      11908.1
      44.7336      12615.1
      44.5906      13363.8
      44.4477      14156.9
      44.3047      14996.9
      44.1618      15886.5
      44.0188      16828.8
      43.8759      17826.8
      43.7329      18883.9
      43.5899      20003.4
       43.447      21189.1
       43.304      22444.8
      43.1611      23774.7
      43.0181      25183.2
      42.8752      26674.9
      42.7322      28254.7
      42.5893      29927.8
      42.4463      31699.6
      42.3033        33576
      42.1604      35563.1
      42.0174      37667.4
      41.8745      39895.9
      41.7315      42255.8
      41.5886      44754.8
      41.4456      47401.2
      41.3027      50203.6
      41.1597      53171.2
      41.0167      56313.6
      40.8738      59641.1
      40.7308      63164.7
      40.5879      66895.7
      40.4449      70846.4
       40.302      75029.8
       40.159      79459.3
      40.0161      84149.5
      39.8731      89115.7
      39.7302        94374
      39.5872      99941.6
      39.4442       105837
      39.3013       112078
      39.1583       118687
      39.0154       125683
      38.8724       133091
      38.7295       140935
      38.5865       149239
      38.4436       158030
      38.3006       167338
      38.1576       177192
      38.0147       187625
      37.8717       198669
      37.7288       210362
      37.5858       222741
      37.4429       235846
      37.2999       249719
       37.157       264405
       37.014       279952
       36.871       296411
      36.7281       313833
      36.5851       332277
      36.4422       351800
      36.2992       372467
      36.1563       394344
      36.0133       417501
      35.8704       442014
      35.7274       467961
      35.5844       495426
      35.4415       524497
      35.2985       555268
      35.1556       587838
      35.0126       622312
      34.8697       658801
      34.7267       697422
      34.5838       738299
      34.4408       781563
      34.2978       827354
      34.1549       875819
      34.0119       927112
       33.869       981399
       33.726  1.03885e+06
      33.5831  1.09966e+06
      33.4401  1.16401e+06
      33.2972  1.23212e+06
      33.1542  1.30419e+06
      33.0112  1.38047e+06
      32.8683  1.46119e+06
      32.7253  1.54662e+06
      32.5824  1.63702e+06
      32.4394  1.73268e+06
      32.2965  1.83392e+06
      32.1535  1.94105e+06
      32.0106  2.05442e+06
      31.8676  2.17438e+06
      31.7247  2.30132e+06
      31.5817  2.43565e+06
      31.4387  2.57778e+06
      31.2958  2.72819e+06
      31.1528  2.88733e+06
      31.0099  3.05573e+06
      30.8669   3.2339e+06
       30.724  3.42243e+06
       30.581  3.62191e+06
      30.4381  3.83298e+06
      30.2951  4.05629e+06
      30.1521  4.29257e+06
      30.0092  4.54256e+06
      29.8662  4.80706e+06
      29.7233   5.0869e+06
      29.5803  5.38296e+06
      29.4374  5.69619e+06
      29.2944  6.02758e+06
      29.1515  6.37818e+06
      29.0085  6.74909e+06
      28.8655  7.14149e+06
      28.7226  7.55661e+06
      28.5796  7.99577e+06
      28.4367  8.46036e+06
      28.2937  8.95183e+06
      28.1508  9.47175e+06
      28.0078  1.00217e+07
      27.8649  1.06036e+07
      27.7219   1.1219e+07
      27.5789    1.187e+07
       27.436  1.25587e+07
       27.293  1.32872e+07
      27.1501  1.40577e+07
      27.0071  1.48728e+07
      26.8642  1.57349e+07
      26.7212  1.66468e+07
      26.5783  1.76114e+07
      26.4353  1.86316e+07
      26.2923  1.97106e+07
      26.1494   2.0852e+07
      26.0064  2.20591e+07
      25.8635  2.33358e+07
      25.7205  2.46862e+07
      25.5776  2.61143e+07
      25.4346  2.76248e+07
      25.2917  2.92222e+07
      25.1487  3.09117e+07
      25.0057  3.26984e+07
      24.8628   3.4588e+07
      24.7198  3.65863e+07
      24.5769  3.86996e+07
      24.4339  4.09345e+07
       24.291  4.32979e+07
       24.148  4.57971e+07
      24.0051  4.84401e+07
      23.8621  5.12349e+07
      23.7192  5.41903e+07
      23.5762  5.73155e+07
      23.4332  6.06201e+07
      23.2903  6.41145e+07
      23.1473  6.78095e+07
      23.0044  7.17165e+07
      22.8614  7.58477e+07
      22.7185  8.02158e+07
      22.5755  8.48344e+07
      22.4326  8.97178e+07
      22.2896  9.48811e+07
      22.1466   1.0034e+08
      22.0037  1.06112e+08
      21.8607  1.12215e+08
      21.7178  1.18667e+08
      21.5748  1.25488e+08
      21.4319    1.327e+08
      21.2889  1.40324e+08
       21.146  1.48384e+08
       21.003  1.56906e+08
        20.86  1.65914e+08
      20.7171  1.75438e+08
      20.5741  1.85506e+08
      20.4312  1.96149e+08
      20.2882    2.074e+08
      20.1453  2.19293e+08
      20.0023  2.31866e+08
      19.8594  2.45155e+08
      19.7164  2.59204e+08
      19.5734  2.74053e+08
      19.4305   2.8975e+08
      19.2875  3.06341e+08
      19.1446  3.23879e+08
      19.0016  3.42415e+08
      18.8587  3.62008e+08
      18.7157  3.82717e+08
      18.5728  4.04604e+08
      18.4298  4.27738e+08
      18.2868  4.52189e+08
      18.1439   4.7803e+08
      18.0009  5.05342e+08
       17.858  5.34207e+08
       17.715  5.64712e+08
      17.5721  5.96952e+08
      17.4291  6.31024e+08
      17.2862  6.67031e+08
      17.1432  7.05083e+08
      17.0002  7.45295e+08
      16.8573   7.8779e+08
      16.7143  8.32697e+08
      16.5714  8.80151e+08
      16.4284  9.30296e+08
      16.2855  9.83285e+08
      16.1425  1.03928e+09
      15.9996  1.09844e+09
      15.8566  1.16096e+09
      15.7137  1.22702e+09
      15.5707  1.29682e+09
      15.4277  1.37057e+09
      15.2848  1.44849e+09
      15.1418  1.53082e+09
      14.9989  1.61781e+09
      14.8559  1.70972e+09
       14.713  1.80683e+09
        14.57  1.90942e+09
      14.4271   2.0178e+09
      14.2841  2.13231e+09
      14.1411  2.25329e+09
      13.9982  2.38109e+09
      13.8552  2.51611e+09
      13.7123  2.65875e+09
      13.5693  2.80943e+09
      13.4264   2.9686e+09
      13.2834  3.13675e+09
      13.1405  3.31438e+09
      12.9975  3.50201e+09
      12.8545  3.70021e+09
      12.7116  3.90957e+09
      12.5686  4.13071e+09
      12.4257   4.3643e+09
      12.2827  4.61103e+09
      12.1398  4.87163e+09
      11.9968  5.14689e+09
      11.8539  5.43762e+09
      11.7109  5.74468e+09
      11.5679  6.06899e+09
       11.425  6.41152e+09
       11.282  6.77327e+09
      11.1391  7.15533e+09
      10.9961  7.55882e+09
      10.8532  7.98495e+09
      10.7102  8.43497e+09
      10.5673  8.91022e+09
      10.4243   9.4121e+09
      10.2813  9.94209e+09
      10.1384  1.05018e+10
      9.99544  1.10928e+10
      9.85248  1.17169e+10
      9.70953  1.23759e+10
      9.56657  1.30718e+10
      9.42362  1.38066e+10
      9.28066  1.45825e+10
      9.13771  1.54017e+10
      8.99475  1.62667e+10
       8.8518    1.718e+10
      8.70884  1.81443e+10
      8.56588  1.91625e+10
      8.42293  2.02374e+10
      8.27997  2.13723e+10
      8.13702  2.25705e+10
      7.99406  2.38355e+10
      7.85111   2.5171e+10
      7.70815  2.65809e+10
       7.5652  2.80693e+10
      7.42224  2.96405e+10
      7.27929  3.12993e+10
      7.13633  3.30503e+10
      6.99338  3.48987e+10
      6.85042  3.68499e+10
      6.70746  3.89095e+10
      6.56451  4.10836e+10
      6.42155  4.33785e+10
       6.2786  4.58008e+10
      6.13564  4.83576e+10
      5.99269  5.10563e+10
      5.84973  5.39047e+10
      5.70678   5.6911e+10
      5.56382  6.00841e+10
      5.42087   6.3433e+10
      5.27791  6.69674e+10
      5.13496  7.06976e+10
        4.992  7.46343e+10
      4.84905  7.87889e+10
      4.70609  8.31734e+10
      4.56313  8.78004e+10
      4.42018  9.26832e+10
      4.27722  9.78359e+10
      4.13427  1.03273e+11
      3.99131  1.09011e+11
      3.84836  1.15066e+11
       3.7054  1.21454e+11
      3.56245  1.28196e+11
      3.41949  1.35309e+11
      3.27654  1.42814e+11
      3.13358  1.50733e+11
      2.99063  1.59089e+11
      2.84767  1.67904e+11
      2.70472  1.77205e+11
      2.56176  1.87018e+11
       2.4188  1.97371e+11
      2.27585  2.08294e+11
      2.13289  2.19817e+11
      1.98994  2.31973e+11
      1.84698  2.44797e+11
      1.70403  2.58326e+11
      1.56107  2.72598e+11
      1.41812  2.87653e+11
      1.27516  3.03534e+11
      1.13221  3.20286e+11
     0.989251  3.37957e+11
     0.846296  3.56596e+11
      0.70334  3.76256e+11
     0.560385  3.96993e+11
      0.41743  4.18865e+11
     0.274474  4.41934e+11
     0.131519  4.66266e+11
   -0.0114364  4.91927e+11
    -0.154392  5.18992e+11
    -0.297347  5.47536e+11
    -0.440302  5.77638e+11
    -0.583258  6.09385e+11
    -0.726213  6.42864e+11
    -0.869169  6.78171e+11
     -1.01212  7.15403e+11
     -1.15508  7.54664e+11
     -1.29803  7.96066e+11
     -1.44099  8.39723e+11
     -1.58395  8.85758e+11
      -1.7269  9.34298e+11
     -1.86986  9.85481e+11
     -2.01281  1.03945e+12
     -2.15577  1.09635e+12
     -2.29872  1.15634e+12
     -2.44168   1.2196e+12
     -2.58463  1.28629e+12
     -2.72759   1.3566e+12
     -2.87054  1.43072e+12
      -3.0135  1.50887e+12
     -3.15645  1.59125e+12
     -3.29941   1.6781e+12
     -3.44236  1.76966e+12
     -3.58532  1.86618e+12
     -3.72828  1.96792e+12
     -3.87123  2.07516e+12
     -4.01419  2.18821e+12
     -4.15714  2.30737e+12
      -4.3001  2.43297e+12
     -4.44305  2.56536e+12
     -4.58601  2.70489e+12
     -4.72896  2.85196e+12
     -4.87192  3.00697e+12
     -5.01487  3.17034e+12
     -5.15783  3.34251e+12
     -5.30078  3.52397e+12
     -5.44374   3.7152e+12
     -5.58669  3.91673e+12
     -5.72965   4.1291e+12
     -5.87261   4.3529e+12
     -6.01556  4.58874e+12
     -6.15852  4.83726e+12
     -6.30147  5.09914e+12
     -6.44443  5.37508e+12
     -6.58738  5.66583e+12
     -6.73034   5.9722e+12
     -6.87329    6.295e+12
     -7.01625   6.6351e+12
      -7.1592  6.99344e+12
     -7.30216  7.37097e+12
     -7.44511  7.76873e+12
     -7.58807  8.18777e+12
     -7.73103  8.62924e+12
     -7.87398  9.09432e+12
     -8.01694  9.58425e+12
