Temperature = 1505.86K
THERMAL DISTRIBUTIONS:
  E, kcal/mol           W1
      133.186    0.0170878
      133.043    0.0178024
        132.9    0.0185468
      132.757    0.0193223
      132.614    0.0201301
      132.471    0.0209715
      132.328    0.0218481
      132.185    0.0227612
      132.042    0.0237124
      131.899    0.0247033
      131.756    0.0257354
      131.613    0.0268106
       131.47    0.0279305
      131.327    0.0290972
      131.184    0.0303124
      131.041    0.0315783
      130.898    0.0328969
      130.756    0.0342705
      130.613    0.0357012
       130.47    0.0371916
      130.327     0.038744
      130.184     0.040361
      130.041    0.0420454
      129.898    0.0437998
      129.755    0.0456274
      129.612    0.0475309
      129.469    0.0495137
      129.326     0.051579
      129.183    0.0537302
       129.04     0.055971
      128.897    0.0583049
      128.754    0.0607359
      128.611     0.063268
      128.468    0.0659054
      128.325    0.0686525
      128.182    0.0715138
      128.039    0.0744941
      127.896    0.0775982
      127.753    0.0808314
      127.611    0.0841989
      127.468    0.0877064
      127.325    0.0913596
      127.182    0.0951646
      127.039    0.0991277
      126.896     0.103255
      126.753     0.107554
       126.61     0.112032
      126.467     0.116696
      126.324     0.121553
      126.181     0.126612
      126.038     0.131881
      125.895     0.137368
      125.752     0.143084
      125.609     0.149036
      125.466     0.155236
      125.323     0.161692
       125.18     0.168417
      125.037      0.17542
      124.894     0.182714
      124.751     0.190311
      124.608     0.198222
      124.466     0.206462
      124.323     0.215043
       124.18      0.22398
      124.037     0.233287
      123.894      0.24298
      123.751     0.253075
      123.608     0.263588
      123.465     0.274536
      123.322     0.285938
      123.179     0.297813
      123.036     0.310179
      122.893     0.323057
       122.75     0.336469
      122.607     0.350436
      122.464     0.364981
      122.321     0.380128
      122.178     0.395902
      122.035     0.412329
      121.892     0.429436
      121.749      0.44725
      121.606     0.465802
      121.463     0.485121
       121.32     0.505239
      121.178     0.526189
      121.035     0.548006
      120.892     0.570725
      120.749     0.594383
      120.606     0.619019
      120.463     0.644673
       120.32     0.671388
      120.177     0.699206
      120.034     0.728174
      119.891      0.75834
      119.748     0.789751
      119.605     0.822459
      119.462     0.856519
      119.319     0.891986
      119.176     0.928916
      119.033     0.967372
       118.89      1.00742
      118.747      1.04911
      118.604      1.09253
      118.461      1.13774
      118.318      1.18481
      118.175      1.23383
      118.033      1.28487
       117.89      1.33801
      117.747      1.39335
      117.604      1.45097
      117.461      1.51096
      117.318      1.57343
      117.175      1.63848
      117.032       1.7062
      116.889      1.77672
      116.746      1.85014
      116.603      1.92659
       116.46      2.00619
      116.317      2.08907
      116.174      2.17536
      116.031      2.26521
      115.888      2.35875
      115.745      2.45615
      115.602      2.55756
      115.459      2.66315
      115.316      2.77308
      115.173      2.88753
       115.03       3.0067
      114.887      3.13077
      114.745      3.25994
      114.602      3.39443
      114.459      3.53445
      114.316      3.68024
      114.173      3.83201
       114.03      3.99003
      113.887      4.15454
      113.744      4.32582
      113.601      4.50414
      113.458      4.68979
      113.315      4.88306
      113.172      5.08428
      113.029      5.29377
      112.886      5.51186
      112.743      5.73892
        112.6      5.97529
      112.457      6.22138
      112.314      6.47757
      112.171      6.74427
      112.028      7.02193
      111.885      7.31098
      111.742       7.6119
        111.6      7.92517
      111.457      8.25129
      111.314      8.59079
      111.171      8.94421
      111.028      9.31214
      110.885      9.69515
      110.742      10.0939
      110.599      10.5089
      110.456       10.941
      110.313      11.3908
       110.17       11.859
      110.027      12.3465
      109.884      12.8539
      109.741       13.382
      109.598      13.9319
      109.455      14.5042
      109.312         15.1
      109.169      15.7202
      109.026      16.3657
      108.883      17.0377
       108.74      17.7373
      108.597      18.4654
      108.455      19.2234
      108.312      20.0123
      108.169      20.8336
      108.026      21.6884
      107.883      22.5782
       107.74      23.5044
      107.597      24.4685
      107.454       25.472
      107.311      26.5165
      107.168      27.6037
      107.025      28.7354
      106.882      29.9133
      106.739      31.1393
      106.596      32.4155
      106.453      33.7438
       106.31      35.1263
      106.167      36.5653
      106.024       38.063
      105.881       39.622
      105.738      41.2445
      105.595      42.9333
      105.452       44.691
      105.309      46.5205
      105.167      48.4246
      105.024      50.4064
      104.881      52.4691
      104.738      54.6159
      104.595      56.8502
      104.452      59.1757
      104.309      61.5959
      104.166      64.1149
      104.023      66.7365
       103.88       69.465
      103.737      72.3046
      103.594        75.26
      103.451      78.3358
      103.308      81.5369
      103.165      84.8683
      103.022      88.3354
      102.879      91.9437
      102.736       95.699
      102.593      99.6071
       102.45      103.674
      102.307      107.907
      102.164      112.312
      102.022      116.896
      101.879      121.667
      101.736      126.631
      101.593      131.798
       101.45      137.175
      101.307       142.77
      101.164      148.593
      101.021      154.652
      100.878      160.958
      100.735       167.52
      100.592      174.349
      100.449      181.455
      100.306       188.85
      100.163      196.545
       100.02      204.552
      99.8772      212.885
      99.7342      221.556
      99.5913      230.579
      99.4483      239.968
      99.3054      249.739
      99.1624      259.905
      99.0195      270.484
      98.8765      281.493
      98.7335      292.948
      98.5906      304.867
      98.4476       317.27
      98.3047      330.175
      98.1617      343.604
      98.0188      357.577
      97.8758      372.116
      97.7329      387.245
      97.5899      402.986
      97.4469      419.365
       97.304      436.407
       97.161       454.14
      97.0181       472.59
      96.8751      491.788
      96.7322      511.762
      96.5892      532.545
      96.4463      554.169
      96.3033      576.669
      96.1603      600.078
      96.0174      624.434
      95.8744      649.776
      95.7315      676.142
      95.5885      703.574
      95.4456      732.116
      95.3026      761.811
      95.1597      792.706
      95.0167       824.85
      94.8737      858.292
      94.7308      893.086
      94.5878      929.284
      94.4449      966.945
      94.3019      1006.13
       94.159      1046.89
       94.016       1089.3
      93.8731      1133.42
      93.7301      1179.32
      93.5871      1227.08
      93.4442      1276.76
      93.3012      1328.44
      93.1583      1382.21
      93.0153      1438.15
      92.8724      1496.34
      92.7294      1556.88
      92.5865      1619.86
      92.4435      1685.38
      92.3005      1753.54
      92.1576      1824.44
      92.0146      1898.21
      91.8717      1974.94
      91.7287      2054.76
      91.5858       2137.8
      91.4428      2224.18
      91.2999      2314.04
      91.1569      2407.51
       91.014      2504.75
       90.871       2605.9
       90.728      2711.11
      90.5851      2820.56
      90.4421      2934.42
      90.2992      3052.85
      90.1562      3176.04
      90.0133      3304.19
      89.8703      3437.48
      89.7274      3576.14
      89.5844      3720.36
      89.4414      3870.38
      89.2985      4026.43
      89.1555      4188.74
      89.0126      4357.57
      88.8696      4533.18
      88.7267      4715.84
      88.5837      4905.84
      88.4408      5103.45
      88.2978         5309
      88.1548       5522.8
      88.0119      5745.17
      87.8689      5976.46
       87.726      6217.02
       87.583      6467.23
      87.4401      6727.47
      87.2971      6998.14
      87.1542      7279.66
      87.0112      7572.46
      86.8682         7877
      86.7253      8193.73
      86.5823      8523.14
      86.4394      8865.75
      86.2964      9222.08
      86.1535      9592.67
      86.0105      9978.09
      85.8676      10378.9
      85.7246      10795.8
      85.5816      11229.4
      85.4387      11680.3
      85.2957      12149.2
      85.1528      12636.9
      85.0098      13144.1
      84.8669      13671.6
      84.7239      14220.1
       84.581      14790.6
       84.438      15383.9
       84.295      16000.9
      84.1521      16642.5
      84.0091      17309.7
      83.8662      18003.6
      83.7232      18725.1
      83.5803      19475.5
      83.4373      20255.8
      83.2944      21067.3
      83.1514      21911.1
      83.0085      22788.6
      82.8655      23701.1
      82.7225        24650
      82.5796      25636.7
      82.4366      26662.8
      82.2937      27729.7
      82.1507      28839.2
      82.0078      29992.9
      81.8648      31192.5
      81.7219      32439.9
      81.5789        33737
      81.4359      35085.7
       81.293      36488.2
        81.15      37946.4
      81.0071      39462.7
      80.8641      41039.3
      80.7212      42678.7
      80.5782      44383.2
      80.4353      46155.6
      80.2923      47998.4
      80.1493      49914.4
      80.0064      51906.7
      79.8634      53978.1
      79.7205      56131.8
      79.5775      58371.1
      79.4346      60699.4
      79.2916      63120.1
      79.1487      65636.9
      79.0057      68253.7
      78.8627      70974.3
      78.7198      73802.9
      78.5768      76743.8
      78.4339      79801.3
      78.2909      82980.2
       78.148        86285
       78.005        89721
      77.8621      93293.2
      77.7191      97006.9
      77.5761       100868
      77.4332       104882
      77.2902       109055
      77.1473       113393
      77.0043       117903
      76.8614       122592
      76.7184       127466
      76.5755       132533
      76.4325       137801
      76.2896       143278
      76.1466       148970
      76.0036       154889
      75.8607       161041
      75.7177       167436
      75.5748       174084
      75.4318       180995
      75.2889       188180
      75.1459       195648
       75.003       203411
        74.86       211480
       74.717       219869
      74.5741       228588
      74.4311       237652
      74.2882       247074
      74.1452       256867
      74.0023       267047
      73.8593       277628
      73.7164       288627
      73.5734       300059
      73.4304       311942
      73.2875       324294
      73.1445       337132
      73.0016       350476
      72.8586       364346
      72.7157       378763
      72.5727       393747
      72.4298       409321
      72.2868       425508
      72.1438       442332
      72.0009       459819
      71.8579       477993
       71.715       496882
       71.572       516515
      71.4291       536919
      71.2861       558125
      71.1432       580165
      71.0002       603072
      70.8572       626878
      70.7143       651620
      70.5713       677333
      70.4284       704056
      70.2854       731829
      70.1425       760691
      69.9995       790687
      69.8566       821859
      69.7136       854255
      69.5706       887921
      69.4277       922908
      69.2847       959266
      69.1418       997050
      68.9988  1.03631e+06
      68.8559  1.07712e+06
      68.7129  1.11952e+06
        68.57  1.16358e+06
       68.427  1.20937e+06
      68.2841  1.25695e+06
      68.1411   1.3064e+06
      67.9981  1.35778e+06
      67.8552  1.41117e+06
      67.7122  1.46665e+06
      67.5693   1.5243e+06
      67.4263   1.5842e+06
      67.2834  1.64645e+06
      67.1404  1.71113e+06
      66.9975  1.77834e+06
      66.8545  1.84817e+06
      66.7115  1.92073e+06
      66.5686  1.99613e+06
      66.4256  2.07447e+06
      66.2827  2.15588e+06
      66.1397  2.24046e+06
      65.9968  2.32834e+06
      65.8538  2.41965e+06
      65.7109  2.51452e+06
      65.5679  2.61309e+06
      65.4249  2.71551e+06
       65.282  2.82192e+06
       65.139  2.93248e+06
      64.9961  3.04735e+06
      64.8531   3.1667e+06
      64.7102  3.29069e+06
      64.5672  3.41951e+06
      64.4243  3.55336e+06
      64.2813  3.69241e+06
      64.1383  3.83687e+06
      63.9954  3.98696e+06
      63.8524  4.14289e+06
      63.7095  4.30489e+06
      63.5665  4.47318e+06
      63.4236  4.64802e+06
      63.2806  4.82966e+06
      63.1377  5.01836e+06
      62.9947  5.21439e+06
      62.8517  5.41804e+06
      62.7088   5.6296e+06
      62.5658  5.84937e+06
      62.4229  6.07768e+06
      62.2799  6.31485e+06
       62.137  6.56123e+06
       61.994  6.81717e+06
      61.8511  7.08304e+06
      61.7081  7.35922e+06
      61.5651  7.64611e+06
      61.4222  7.94413e+06
      61.2792   8.2537e+06
      61.1363  8.57526e+06
      60.9933  8.90928e+06
      60.8504  9.25625e+06
      60.7074  9.61665e+06
      60.5645  9.99101e+06
      60.4215  1.03799e+07
      60.2786  1.07838e+07
      60.1356  1.12033e+07
      59.9926   1.1639e+07
      59.8497  1.20917e+07
      59.7067  1.25618e+07
      59.5638  1.30501e+07
      59.4208  1.35572e+07
      59.2779   1.4084e+07
      59.1349  1.46311e+07
       58.992  1.51994e+07
       58.849  1.57896e+07
       58.706  1.64026e+07
      58.5631  1.70392e+07
      58.4201  1.77004e+07
      58.2772  1.83872e+07
      58.1342  1.91004e+07
      57.9913  1.98411e+07
      57.8483  2.06104e+07
      57.7054  2.14094e+07
      57.5624  2.22391e+07
      57.4194  2.31008e+07
      57.2765  2.39957e+07
      57.1335  2.49251e+07
      56.9906  2.58903e+07
      56.8476  2.68926e+07
      56.7047  2.79335e+07
      56.5617  2.90145e+07
      56.4188   3.0137e+07
      56.2758  3.13027e+07
      56.1328  3.25133e+07
      55.9899  3.37704e+07
      55.8469  3.50758e+07
       55.704  3.64313e+07
       55.561   3.7839e+07
      55.4181  3.93007e+07
      55.2751  4.08185e+07
      55.1322  4.23946e+07
      54.9892  4.40312e+07
      54.8462  4.57306e+07
      54.7033  4.74952e+07
      54.5603  4.93275e+07
      54.4174    5.123e+07
      54.2744  5.32055e+07
      54.1315  5.52567e+07
      53.9885  5.73865e+07
      53.8456  5.95978e+07
      53.7026  6.18939e+07
      53.5597  6.42779e+07
      53.4167  6.67532e+07
      53.2737  6.93232e+07
      53.1308  7.19915e+07
      52.9878  7.47619e+07
      52.8449  7.76383e+07
      52.7019  8.06246e+07
       52.559  8.37251e+07
       52.416  8.69441e+07
      52.2731  9.02861e+07
      52.1301  9.37557e+07
      51.9871  9.73579e+07
      51.8442  1.01098e+08
      51.7012   1.0498e+08
      51.5583  1.09011e+08
      51.4153  1.13195e+08
      51.2724  1.17539e+08
      51.1294  1.22048e+08
      50.9865   1.2673e+08
      50.8435   1.3159e+08
      50.7005  1.36635e+08
      50.5576  1.41872e+08
      50.4146  1.47309e+08
      50.2717  1.52953e+08
      50.1287  1.58812e+08
      49.9858  1.64893e+08
      49.8428  1.71206e+08
      49.6999  1.77759e+08
      49.5569  1.84562e+08
      49.4139  1.91623e+08
       49.271  1.98952e+08
       49.128   2.0656e+08
      48.9851  2.14457e+08
      48.8421  2.22654e+08
      48.6992  2.31162e+08
      48.5562  2.39993e+08
      48.4133  2.49159e+08
      48.2703  2.58673e+08
      48.1273  2.68547e+08
      47.9844  2.78797e+08
      47.8414  2.89434e+08
      47.6985  3.00475e+08
      47.5555  3.11935e+08
      47.4126  3.23828e+08
      47.2696  3.36172e+08
      47.1267  3.48983e+08
      46.9837  3.62279e+08
      46.8407  3.76079e+08
      46.6978    3.904e+08
      46.5548  4.05263e+08
      46.4119  4.20688e+08
      46.2689  4.36696e+08
       46.126  4.53309e+08
       45.983   4.7055e+08
      45.8401  4.88442e+08
      45.6971  5.07009e+08
      45.5542  5.26278e+08
      45.4112  5.46274e+08
      45.2682  5.67024e+08
      45.1253  5.88557e+08
      44.9823  6.10902e+08
      44.8394  6.34089e+08
      44.6964  6.58151e+08
      44.5535  6.83119e+08
      44.4105  7.09027e+08
      44.2676  7.35911e+08
      44.1246  7.63808e+08
      43.9816  7.92754e+08
      43.8387   8.2279e+08
      43.6957  8.53955e+08
      43.5528  8.86293e+08
      43.4098  9.19846e+08
      43.2669  9.54661e+08
      43.1239  9.90783e+08
       42.981  1.02826e+09
       42.838  1.06715e+09
       42.695   1.1075e+09
      42.5521  1.14936e+09
      42.4091  1.19279e+09
      42.2662  1.23785e+09
      42.1232  1.28461e+09
      41.9803  1.33311e+09
      41.8373  1.38343e+09
      41.6944  1.43564e+09
      41.5514   1.4898e+09
      41.4084    1.546e+09
      41.2655  1.60429e+09
      41.1225  1.66477e+09
      40.9796  1.72751e+09
      40.8366   1.7926e+09
      40.6937  1.86012e+09
      40.5507  1.93017e+09
      40.4078  2.00283e+09
      40.2648  2.07821e+09
      40.1218  2.15641e+09
      39.9789  2.23752e+09
      39.8359  2.32166e+09
       39.693  2.40895e+09
        39.55  2.49948e+09
      39.4071   2.5934e+09
      39.2641  2.69082e+09
      39.1212  2.79187e+09
      38.9782  2.89668e+09
      38.8352   3.0054e+09
      38.6923  3.11817e+09
      38.5493  3.23514e+09
      38.4064  3.35646e+09
      38.2634  3.48229e+09
      38.1205  3.61281e+09
      37.9775  3.74818e+09
      37.8346  3.88858e+09
      37.6916   4.0342e+09
      37.5487  4.18522e+09
      37.4057  4.34186e+09
      37.2627  4.50432e+09
      37.1198   4.6728e+09
      36.9768  4.84754e+09
      36.8339  5.02876e+09
      36.6909   5.2167e+09
       36.548   5.4116e+09
       36.405  5.61373e+09
      36.2621  5.82335e+09
      36.1191  6.04074e+09
      35.9761  6.26617e+09
      35.8332  6.49995e+09
      35.6902  6.74237e+09
      35.5473  6.99377e+09
      35.4043  7.25446e+09
      35.2614   7.5248e+09
      35.1184  7.80512e+09
      34.9755   8.0958e+09
      34.8325  8.39721e+09
      34.6895  8.70975e+09
      34.5466  9.03383e+09
      34.4036  9.36987e+09
      34.2607  9.71831e+09
      34.1177  1.00796e+10
      33.9748  1.04542e+10
      33.8318  1.08426e+10
      33.6889  1.12453e+10
      33.5459  1.16629e+10
      33.4029  1.20958e+10
        33.26  1.25446e+10
       33.117    1.301e+10
      32.9741  1.34925e+10
      32.8311  1.39927e+10
      32.6882  1.45113e+10
      32.5452   1.5049e+10
      32.4023  1.56064e+10
      32.2593  1.61843e+10
      32.1163  1.67834e+10
      31.9734  1.74044e+10
      31.8304  1.80483e+10
      31.6875  1.87158e+10
      31.5445  1.94077e+10
      31.4016   2.0125e+10
      31.2586  2.08686e+10
      31.1157  2.16394e+10
      30.9727  2.24384e+10
      30.8298  2.32667e+10
      30.6868  2.41253e+10
      30.5438  2.50152e+10
      30.4009  2.59377e+10
      30.2579   2.6894e+10
       30.115  2.78851e+10
       29.972  2.89125e+10
      29.8291  2.99773e+10
      29.6861  3.10811e+10
      29.5432  3.22251e+10
      29.4002  3.34108e+10
      29.2572  3.46398e+10
      29.1143  3.59135e+10
      28.9713  3.72337e+10
      28.8284  3.86019e+10
      28.6854  4.00199e+10
      28.5425  4.14896e+10
      28.3995  4.30127e+10
      28.2566  4.45912e+10
      28.1136  4.62272e+10
      27.9706  4.79225e+10
      27.8277  4.96795e+10
