Temperature = 1601.11K
THERMAL DISTRIBUTIONS:
  E, kcal/mol           W1
      140.757    0.0522457
      140.614    0.0542868
      140.471    0.0564076
      140.328    0.0586109
      140.185    0.0609001
      140.042    0.0632785
      139.899    0.0657495
      139.756    0.0683168
      139.613     0.070984
       139.47    0.0737551
      139.327    0.0766341
      139.184    0.0796252
      139.041    0.0827327
      138.898    0.0859612
      138.755    0.0893154
      138.612       0.0928
      138.469    0.0964203
      138.326     0.100181
      138.183     0.104089
      138.041     0.108148
      137.898     0.112366
      137.755     0.116747
      137.612     0.121299
      137.469     0.126028
      137.326      0.13094
      137.183     0.136044
       137.04     0.141346
      136.897     0.146854
      136.754     0.152576
      136.611     0.158521
      136.468     0.164696
      136.325     0.171111
      136.182     0.177776
      136.039       0.1847
      135.896     0.191892
      135.753     0.199364
       135.61     0.207126
      135.467     0.215189
      135.324     0.223565
      135.181     0.232267
      135.038     0.241306
      134.896     0.250696
      134.753     0.260451
       134.61     0.270584
      134.467      0.28111
      134.324     0.292044
      134.181     0.303403
      134.038     0.315202
      133.895     0.327459
      133.752     0.340191
      133.609     0.353417
      133.466     0.367156
      133.323     0.381427
       133.18     0.396251
      133.037      0.41165
      132.894     0.427646
      132.751     0.444261
      132.608      0.46152
      132.465     0.479448
      132.322     0.498071
      132.179     0.517414
      132.036     0.537507
      131.893     0.558378
      131.751     0.580057
      131.608     0.602576
      131.465     0.625966
      131.322     0.650261
      131.179     0.675497
      131.036     0.701709
      130.893     0.728936
       130.75     0.757216
      130.607      0.78659
      130.464     0.817101
      130.321     0.848791
      130.178     0.881707
      130.035     0.915896
      129.892     0.951407
      129.749     0.988291
      129.606       1.0266
      129.463      1.06639
       129.32      1.10772
      129.177      1.15064
      129.034      1.19523
      128.891      1.24153
      128.748      1.28963
      128.605      1.33958
      128.463      1.39146
       128.32      1.44535
      128.177      1.50132
      128.034      1.55944
      127.891      1.61981
      127.748      1.68252
      127.605      1.74764
      127.462      1.81527
      127.319      1.88552
      127.176      1.95847
      127.033      2.03424
       126.89      2.11293
      126.747      2.19466
      126.604      2.27954
      126.461      2.36769
      126.318      2.45924
      126.175      2.55432
      126.032      2.65307
      125.889      2.75562
      125.746      2.86212
      125.603      2.97273
       125.46       3.0876
      125.318       3.2069
      125.175      3.33079
      125.032      3.45945
      124.889      3.59307
      124.746      3.73183
      124.603      3.87593
       124.46      4.02559
      124.317        4.181
      124.174       4.3424
      124.031      4.51001
      123.888      4.68406
      123.745      4.86482
      123.602      5.05253
      123.459      5.24746
      123.316      5.44988
      123.173       5.6601
       123.03      5.87839
      122.887      6.10508
      122.744      6.34048
      122.601      6.58494
      122.458      6.83879
      122.315      7.10239
      122.172      7.37612
       122.03      7.66038
      121.887      7.95555
      121.744      8.26206
      121.601      8.58034
      121.458      8.91085
      121.315      9.25404
      121.172      9.61042
      121.029      9.98047
      120.886      10.3647
      120.743      10.7637
        120.6      11.1781
      120.457      11.6083
      120.314       12.055
      120.171      12.5189
      120.028      13.0005
      119.885      13.5007
      119.742        14.02
      119.599      14.5592
      119.456      15.1191
      119.313      15.7004
       119.17      16.3041
      119.027      16.9309
      118.885      17.5816
      118.742      18.2574
      118.599       18.959
      118.456      19.6875
      118.313      20.4439
       118.17      21.2292
      118.027      22.0447
      117.884      22.8913
      117.741      23.7704
      117.598      24.6831
      117.455      25.6308
      117.312      26.6147
      117.169      27.6363
      117.026      28.6969
      116.883      29.7982
       116.74      30.9415
      116.597      32.1286
      116.454       33.361
      116.311      34.6406
      116.168      35.9691
      116.025      37.3484
      115.882      38.7804
       115.74      40.2672
      115.597      41.8107
      115.454      43.4132
      115.311       45.077
      115.168      46.8043
      115.025      48.5975
      114.882      50.4593
      114.739      52.3921
      114.596      54.3987
      114.453      56.4819
       114.31      58.6446
      114.167      60.8899
      114.024      63.2208
      113.881      65.6406
      113.738      68.1528
      113.595      70.7608
      113.452      73.4683
      113.309       76.279
      113.166      79.1968
      113.023      82.2259
       112.88      85.3705
      112.737      88.6349
      112.594      92.0237
      112.452      95.5417
      112.309      99.1936
      112.166      102.985
      112.023       106.92
       111.88      111.006
      111.737      115.247
      111.594      119.649
      111.451      124.219
      111.308      128.963
      111.165      133.887
      111.022      138.999
      110.879      144.306
      110.736      149.814
      110.593      155.532
       110.45      161.467
      110.307      167.628
      110.164      174.023
      110.021      180.661
      109.878      187.552
      109.735      194.705
      109.592      202.129
      109.449      209.836
      109.307      217.835
      109.164      226.138
      109.021      234.757
      108.878      243.703
      108.735      252.988
      108.592      262.626
      108.449       272.63
      108.306      283.014
      108.163      293.792
       108.02      304.979
      107.877       316.59
      107.734      328.642
      107.591       341.15
      107.448      354.134
      107.305      367.609
      107.162      381.596
      107.019      396.113
      106.876       411.18
      106.733      426.818
       106.59      443.048
      106.447      459.894
      106.304      477.378
      106.161      495.524
      106.019      514.357
      105.876      533.904
      105.733       554.19
       105.59      575.245
      105.447      597.096
      105.304      619.775
      105.161      643.312
      105.018      667.739
      104.875      693.091
      104.732      719.401
      104.589      746.707
      104.446      775.045
      104.303      804.454
       104.16      834.976
      104.017      866.651
      103.874      899.523
      103.731      933.637
      103.588       969.04
      103.445      1005.78
      103.302      1043.91
      103.159      1083.48
      103.016      1124.54
      102.874      1167.15
      102.731      1211.38
      102.588      1257.27
      102.445      1304.89
      102.302      1354.31
      102.159      1405.59
      102.016      1458.81
      101.873      1514.04
       101.73      1571.35
      101.587      1630.82
      101.444      1692.53
      101.301      1756.57
      101.158      1823.02
      101.015      1891.98
      100.872      1963.53
      100.729      2037.78
      100.586      2114.83
      100.443      2194.78
        100.3      2277.74
      100.157      2363.82
      100.014      2453.15
      99.8715      2545.83
      99.7285      2642.01
      99.5856       2741.8
      99.4426      2845.35
      99.2996      2952.79
      99.1567      3064.28
      99.0137      3179.96
      98.8708      3299.98
      98.7278      3424.52
      98.5849      3553.74
      98.4419      3687.82
       98.299      3826.94
       98.156      3971.28
       98.013      4121.05
      97.8701      4276.44
      97.7271      4437.67
      97.5842      4604.95
      97.4412      4778.51
      97.2983      4958.59
      97.1553      5145.43
      97.0124      5339.28
      96.8694       5540.4
      96.7264      5749.07
      96.5835      5965.56
      96.4405      6190.18
      96.2976      6423.22
      96.1546      6664.99
      96.0117      6915.83
      95.8687      7176.07
      95.7258      7446.06
      95.5828      7726.17
      95.4398      8016.78
      95.2969      8318.27
      95.1539      8631.05
       95.011      8955.54
       94.868      9292.19
      94.7251      9641.43
      94.5821      10003.8
      94.4392      10379.6
      94.2962      10769.6
      94.1533      11174.1
      94.0103      11593.8
      93.8673      12029.1
      93.7244      12480.8
      93.5814      12949.3
      93.4385      13435.3
      93.2955      13939.5
      93.1526      14462.6
      93.0096      15005.2
      92.8667        15568
      92.7237      16151.9
      92.5807      16757.6
      92.4378      17385.9
      92.2948      18037.7
      92.1519      18713.8
      92.0089      19415.1
       91.866      20142.6
       91.723      20897.2
      91.5801        21680
      91.4371        22492
      91.2941      23334.3
      91.1512      24207.9
      91.0082      25114.2
      90.8653      26054.2
      90.7223      27029.3
      90.5794      28040.7
      90.4364      29089.8
      90.2935      30177.9
      90.1505      31306.6
      90.0075      32477.3
      89.8646      33691.6
      89.7216      34951.1
      89.5787      36257.5
      89.4357      37612.4
      89.2928      39017.8
      89.1498      40475.5
      89.0069      41987.4
      88.8639      43555.6
      88.7209        45182
       88.578      46868.9
       88.435      48618.5
      88.2921      50433.1
      88.1491      52315.2
      88.0062      54267.1
      87.8632      56291.6
      87.7203      58391.2
      87.5773      60568.9
      87.4343      62827.3
      87.2914      65169.6
      87.1484      67598.9
      87.0055      70118.2
      86.8625      72731.1
      86.7196      75440.8
      86.5766      78251.1
      86.4337      81165.6
      86.2907      84188.1
      86.1478      87322.7
      86.0048      90573.4
      85.8618      93944.6
      85.7189      97440.7
      85.5759       101066
       85.433       104826
        85.29       108725
      85.1471       112769
      85.0041       116962
      84.8612       121310
      84.7182       125820
      84.5752       130496
      84.4323       135345
      84.2893       140373
      84.1464       145588
      84.0034       150995
      83.8605       156602
      83.7175       162416
      83.5746       168445
      83.4316       174697
      83.2886       181180
      83.1457       187902
      83.0027       194872
      82.8598       202100
      82.7168       209595
      82.5739       217366
      82.4309       225424
       82.288       233779
       82.145       242443
       82.002       251426
      81.8591       260740
      81.7161       270397
      81.5732       280411
      81.4302       290793
      81.2873       301559
      81.1443       312720
      81.0014       324293
      80.8584       336292
      80.7154       348733
      80.5725       361632
      80.4295       375005
      80.2866       388871
      80.1436       403247
      80.0007       418151
      79.8577       433604
      79.7148       449625
      79.5718       466236
      79.4288       483456
      79.2859       501310
      79.1429       519819
           79       539009
       78.857       558903
      78.7141       579528
      78.5711       600911
      78.4282       623078
      78.2852       646059
      78.1423       669883
      77.9993       694582
      77.8563       720186
      77.7134       746730
      77.5704       774246
      77.4275       802772
      77.2845       832343
      77.1416       862998
      76.9986       894776
      76.8557       927718
      76.7127       961867
      76.5697       997267
      76.4268  1.03396e+06
      76.2838    1.072e+06
      76.1409  1.11143e+06
      75.9979  1.15231e+06
       75.855  1.19467e+06
       75.712  1.23859e+06
      75.5691  1.28412e+06
      75.4261  1.33131e+06
      75.2831  1.38022e+06
      75.1402  1.43092e+06
      74.9972  1.48348e+06
      74.8543  1.53795e+06
      74.7113  1.59442e+06
      74.5684  1.65295e+06
      74.4254  1.71361e+06
      74.2825  1.77649e+06
      74.1395  1.84166e+06
      73.9965  1.90921e+06
      73.8536  1.97923e+06
      73.7106   2.0518e+06
      73.5677  2.12702e+06
      73.4247  2.20498e+06
      73.2818  2.28578e+06
      73.1388  2.36952e+06
      72.9959  2.45632e+06
      72.8529  2.54628e+06
      72.7099  2.63952e+06
       72.567  2.73615e+06
       72.424   2.8363e+06
      72.2811   2.9401e+06
      72.1381  3.04768e+06
      71.9952  3.15917e+06
      71.8522  3.27471e+06
      71.7093  3.39446e+06
      71.5663  3.51856e+06
      71.4234  3.64718e+06
      71.2804  3.78047e+06
      71.1374  3.91861e+06
      70.9945  4.06176e+06
      70.8515  4.21012e+06
      70.7086  4.36386e+06
      70.5656  4.52319e+06
      70.4227   4.6883e+06
      70.2797   4.8594e+06
      70.1368  5.03672e+06
      69.9938  5.22047e+06
      69.8508  5.41088e+06
      69.7079   5.6082e+06
      69.5649  5.81268e+06
       69.422  6.02456e+06
       69.279  6.24413e+06
      69.1361  6.47166e+06
      68.9931  6.70743e+06
      68.8502  6.95173e+06
      68.7072  7.20489e+06
      68.5642  7.46721e+06
      68.4213  7.73903e+06
      68.2783  8.02069e+06
      68.1354  8.31253e+06
      67.9924  8.61494e+06
      67.8495  8.92828e+06
      67.7065  9.25296e+06
      67.5636  9.58937e+06
      67.4206  9.93794e+06
      67.2776  1.02991e+07
      67.1347  1.06733e+07
      66.9917  1.10611e+07
      66.8488  1.14628e+07
      66.7058   1.1879e+07
      66.5629  1.23103e+07
      66.4199  1.27571e+07
       66.277  1.32201e+07
       66.134  1.36998e+07
       65.991  1.41967e+07
      65.8481  1.47116e+07
      65.7051   1.5245e+07
      65.5622  1.57977e+07
      65.4192  1.63703e+07
      65.2763  1.69635e+07
      65.1333  1.75781e+07
      64.9904  1.82148e+07
      64.8474  1.88744e+07
      64.7044  1.95578e+07
      64.5615  2.02658e+07
      64.4185  2.09992e+07
      64.2756   2.1759e+07
      64.1326  2.25462e+07
      63.9897  2.33616e+07
      63.8467  2.42064e+07
      63.7038  2.50815e+07
      63.5608  2.59881e+07
      63.4179  2.69272e+07
      63.2749  2.79001e+07
      63.1319  2.89079e+07
       62.989  2.99519e+07
       62.846  3.10333e+07
      62.7031  3.21535e+07
      62.5601   3.3314e+07
      62.4172   3.4516e+07
      62.2742  3.57612e+07
      62.1313   3.7051e+07
      61.9883   3.8387e+07
      61.8453  3.97709e+07
      61.7024  4.12043e+07
      61.5594  4.26891e+07
      61.4165  4.42271e+07
      61.2735  4.58201e+07
      61.1306  4.74702e+07
      60.9876  4.91792e+07
      60.8447  5.09495e+07
      60.7017   5.2783e+07
      60.5587  5.46821e+07
      60.4158  5.66491e+07
      60.2728  5.86864e+07
      60.1299  6.07964e+07
      59.9869  6.29819e+07
       59.844  6.52454e+07
       59.701  6.75897e+07
      59.5581  7.00177e+07
      59.4151  7.25324e+07
      59.2721  7.51368e+07
      59.1292  7.78341e+07
      58.9862  8.06275e+07
      58.8433  8.35206e+07
      58.7003  8.65168e+07
      58.5574  8.96198e+07
      58.4144  9.28333e+07
      58.2715  9.61613e+07
      58.1285  9.96078e+07
      57.9855  1.03177e+08
      57.8426  1.06873e+08
      57.6996  1.10701e+08
      57.5567  1.14665e+08
      57.4137   1.1877e+08
      57.2708  1.23021e+08
      57.1278  1.27423e+08
      56.9849  1.31982e+08
      56.8419  1.36702e+08
      56.6989   1.4159e+08
       56.556  1.46652e+08
       56.413  1.51893e+08
      56.2701  1.57321e+08
      56.1271  1.62941e+08
      55.9842  1.68761e+08
      55.8412  1.74787e+08
      55.6983  1.81026e+08
      55.5553  1.87487e+08
      55.4124  1.94177e+08
      55.2694  2.01104e+08
      55.1264  2.08276e+08
      54.9835  2.15703e+08
      54.8405  2.23392e+08
      54.6976  2.31353e+08
      54.5546  2.39597e+08
      54.4117  2.48131e+08
      54.2687  2.56968e+08
      54.1258  2.66117e+08
      53.9828   2.7559e+08
      53.8398  2.85397e+08
      53.6969  2.95552e+08
      53.5539  3.06064e+08
       53.411  3.16948e+08
       53.268  3.28216e+08
      53.1251  3.39883e+08
      52.9821   3.5196e+08
      52.8392  3.64464e+08
      52.6962  3.77409e+08
      52.5532   3.9081e+08
      52.4103  4.04684e+08
      52.2673  4.19046e+08
      52.1244  4.33915e+08
      51.9814  4.49307e+08
      51.8385  4.65242e+08
      51.6955  4.81737e+08
      51.5526  4.98813e+08
      51.4096   5.1649e+08
      51.2666  5.34788e+08
      51.1237   5.5373e+08
      50.9807  5.73338e+08
      50.8378  5.93635e+08
      50.6948  6.14646e+08
      50.5519  6.36394e+08
      50.4089  6.58907e+08
       50.266  6.82209e+08
       50.123   7.0633e+08
        49.98  7.31297e+08
      49.8371   7.5714e+08
      49.6941  7.83889e+08
      49.5512  8.11576e+08
      49.4082  8.40234e+08
      49.2653  8.69896e+08
      49.1223  9.00597e+08
      48.9794  9.32373e+08
      48.8364  9.65262e+08
      48.6935  9.99302e+08
      48.5505  1.03453e+09
      48.4075    1.071e+09
      48.2646  1.10874e+09
      48.1216   1.1478e+09
      47.9787  1.18822e+09
      47.8357  1.23006e+09
      47.6928  1.27335e+09
      47.5498  1.31816e+09
      47.4069  1.36454e+09
      47.2639  1.41253e+09
      47.1209   1.4622e+09
       46.978   1.5136e+09
       46.835   1.5668e+09
      46.6921  1.62184e+09
      46.5491  1.67881e+09
      46.4062  1.73776e+09
      46.2632  1.79877e+09
      46.1203   1.8619e+09
      45.9773  1.92723e+09
      45.8343  1.99483e+09
      45.6914  2.06478e+09
      45.5484  2.13717e+09
      45.4055  2.21208e+09
      45.2625  2.28959e+09
      45.1196  2.36979e+09
      44.9766  2.45278e+09
      44.8337  2.53865e+09
      44.6907   2.6275e+09
      44.5477  2.71944e+09
      44.4048  2.81457e+09
      44.2618    2.913e+09
      44.1189  3.01484e+09
      43.9759  3.12021e+09
       43.833  3.22924e+09
        43.69  3.34204e+09
      43.5471  3.45875e+09
      43.4041  3.57951e+09
      43.2611  3.70444e+09
      43.1182   3.8337e+09
      42.9752  3.96743e+09
      42.8323  4.10578e+09
      42.6893  4.24892e+09
      42.5464  4.39701e+09
      42.4034  4.55021e+09
      42.2605  4.70871e+09
      42.1175  4.87268e+09
      41.9745  5.04231e+09
      41.8316   5.2178e+09
      41.6886  5.39934e+09
      41.5457  5.58714e+09
      41.4027  5.78142e+09
      41.2598   5.9824e+09
      41.1168   6.1903e+09
      40.9739  6.40537e+09
      40.8309  6.62784e+09
       40.688  6.85797e+09
       40.545  7.09602e+09
       40.402  7.34226e+09
      40.2591  7.59697e+09
      40.1161  7.86044e+09
      39.9732  8.13296e+09
      39.8302  8.41485e+09
      39.6873  8.70643e+09
      39.5443  9.00802e+09
      39.4014  9.31996e+09
      39.2584   9.6426e+09
      39.1154  9.97632e+09
      38.9725  1.03215e+10
      38.8295  1.06785e+10
      38.6866  1.10477e+10
      38.5436  1.14296e+10
      38.4007  1.18245e+10
      38.2577   1.2233e+10
      38.1148  1.26555e+10
      37.9718  1.30924e+10
      37.8288  1.35443e+10
      37.6859  1.40116e+10
      37.5429  1.44949e+10
         37.4  1.49947e+10
       37.257  1.55116e+10
      37.1141  1.60461e+10
      36.9711  1.65989e+10
      36.8282  1.71706e+10
      36.6852  1.77617e+10
      36.5422  1.83731e+10
      36.3993  1.90052e+10
      36.2563  1.96589e+10
      36.1134  2.03349e+10
      35.9704  2.10339e+10
      35.8275  2.17567e+10
      35.6845  2.25041e+10
      35.5416   2.3277e+10
      35.3986  2.40761e+10
