Temperature = 1549.73K
THERMAL DISTRIBUTIONS:
  E, kcal/mol           W1
      136.674    0.0302366
      136.531    0.0314614
      136.388    0.0327357
      136.245    0.0340615
      136.102    0.0354408
      135.959    0.0368759
      135.816    0.0383689
      135.673    0.0399222
       135.53    0.0415383
      135.387    0.0432196
      135.244    0.0449688
      135.101    0.0467886
      134.958    0.0486818
      134.815    0.0506515
      134.673    0.0527006
       134.53    0.0548325
      134.387    0.0570504
      134.244    0.0593577
      134.101    0.0617581
      133.958    0.0642554
      133.815    0.0668534
      133.672    0.0695561
      133.529    0.0723679
      133.386     0.075293
      133.243     0.078336
        133.1    0.0815017
      132.957    0.0847951
      132.814    0.0882211
      132.671    0.0917852
      132.528     0.095493
      132.385    0.0993501
      132.242     0.103363
      132.099     0.107537
      131.956     0.111879
      131.813     0.116396
       131.67     0.121095
      131.527     0.125984
      131.385     0.131069
      131.242     0.136358
      131.099     0.141861
      130.956     0.147585
      130.813      0.15354
       130.67     0.159734
      130.527     0.166178
      130.384      0.17288
      130.241     0.179853
      130.098     0.187105
      129.955      0.19465
      129.812     0.202498
      129.669     0.210661
      129.526     0.219153
      129.383     0.227986
       129.24     0.237174
      129.097     0.246731
      128.954     0.256673
      128.811     0.267014
      128.668      0.27777
      128.525     0.288959
      128.382     0.300597
       128.24     0.312703
      128.097     0.325295
      127.954     0.338392
      127.811     0.352016
      127.668     0.366186
      127.525     0.380926
      127.382     0.396257
      127.239     0.412203
      127.096     0.428789
      126.953     0.446041
       126.81     0.463985
      126.667     0.482649
      126.524     0.502062
      126.381     0.522254
      126.238     0.543255
      126.095     0.565098
      125.952     0.587817
      125.809     0.611448
      125.666     0.636025
      125.523     0.661588
       125.38     0.688175
      125.237     0.715828
      125.095     0.744589
      124.952     0.774502
      124.809     0.805613
      124.666     0.837971
      124.523     0.871625
       124.38     0.906627
      124.237      0.94303
      124.094     0.980891
      123.951      1.02027
      123.808      1.06122
      123.665      1.10381
      123.522      1.14811
      123.379      1.19418
      123.236      1.24209
      123.093      1.29192
       122.95      1.34374
      122.807      1.39764
      122.664      1.45369
      122.521      1.51199
      122.378      1.57261
      122.235      1.63566
      122.092      1.70123
      121.949      1.76941
      121.807      1.84033
      121.664      1.91408
      121.521      1.99077
      121.378      2.07053
      121.235      2.15348
      121.092      2.23974
      120.949      2.32944
      120.806      2.42273
      120.663      2.51974
       120.52      2.62063
      120.377      2.72554
      120.234      2.83464
      120.091      2.94809
      119.948      3.06608
      119.805      3.18877
      119.662      3.31635
      119.519      3.44903
      119.376        3.587
      119.233      3.73047
       119.09      3.87966
      118.947       4.0348
      118.804      4.19613
      118.662      4.36388
      118.519      4.53833
      118.376      4.71973
      118.233      4.90835
       118.09       5.1045
      117.947      5.30845
      117.804      5.52054
      117.661      5.74107
      117.518      5.97038
      117.375      6.20882
      117.232      6.45676
      117.089      6.71458
      116.946      6.98265
      116.803       7.2614
       116.66      7.55124
      116.517      7.85261
      116.374      8.16597
      116.231       8.4918
      116.088       8.8306
      115.945      9.18287
      115.802      9.54914
      115.659      9.92999
      115.516       10.326
      115.374      10.7377
      115.231      11.1658
      115.088      11.6109
      114.945      12.0737
      114.802      12.5549
      114.659      13.0552
      114.516      13.5754
      114.373      14.1162
       114.23      14.6786
      114.087      15.2632
      113.944      15.8711
      113.801      16.5031
      113.658      17.1602
      113.515      17.8434
      113.372      18.5537
      113.229      19.2922
      113.086        20.06
      112.943      20.8582
        112.8      21.6881
      112.657      22.5509
      112.514       23.448
      112.371      24.3806
      112.229      25.3502
      112.086      26.3582
      111.943      27.4062
        111.8      28.4957
      111.657      29.6284
      111.514       30.806
      111.371      32.0302
      111.228      33.3029
      111.085      34.6261
      110.942      36.0016
      110.799      37.4316
      110.656      38.9182
      110.513      40.4637
       110.37      42.0703
      110.227      43.7406
      110.084      45.4769
      109.941      47.2819
      109.798      49.1584
      109.655       51.109
      109.512      53.1369
      109.369      55.2449
      109.226      57.4363
      109.084      59.7143
      108.941      62.0824
      108.798       64.544
      108.655       67.103
      108.512      69.7631
      108.369      72.5283
      108.226      75.4027
      108.083      78.3907
       107.94      81.4967
      107.797      84.7253
      107.654      88.0815
      107.511      91.5701
      107.368      95.1965
      107.225      98.9659
      107.082      102.884
      106.939      106.957
      106.796      111.191
      106.653      115.591
       106.51      120.165
      106.367       124.92
      106.224      129.862
      106.081      134.999
      105.938      140.338
      105.796      145.888
      105.653      151.657
       105.51      157.653
      105.367      163.885
      105.224      170.362
      105.081      177.095
      104.938      184.093
      104.795      191.367
      104.652      198.927
      104.509      206.785
      104.366      214.952
      104.223       223.44
       104.08      232.263
      103.937      241.432
      103.794      250.963
      103.651      260.868
      103.508      271.163
      103.365      281.863
      103.222      292.983
      103.079      304.541
      102.936      316.553
      102.793      329.037
      102.651      342.012
      102.508      355.497
      102.365      369.511
      102.222      384.076
      102.079      399.213
      101.936      414.945
      101.793      431.294
       101.65      448.286
      101.507      465.944
      101.364      484.295
      101.221      503.367
      101.078      523.187
      100.935      543.784
      100.792       565.19
      100.649      587.435
      100.506      610.553
      100.363      634.577
       100.22      659.543
      100.077      685.488
      99.9344      712.449
      99.7914      740.468
      99.6485      769.584
      99.5055      799.841
      99.3625      831.283
      99.2196      863.957
      99.0766       897.91
      98.9337      933.193
      98.7907      969.857
      98.6478      1007.96
      98.5048      1047.55
      98.3619      1088.69
      98.2189      1131.44
      98.0759      1175.86
       97.933      1222.02
        97.79      1269.98
      97.6471      1319.82
      97.5041      1371.61
      97.3612      1425.43
      97.2182      1481.35
      97.0753      1539.45
      96.9323      1599.82
      96.7893      1662.56
      96.6464      1727.74
      96.5034      1795.47
      96.3605      1865.84
      96.2175      1938.96
      96.0746      2014.94
      95.9316      2093.89
      95.7887      2175.91
      95.6457      2261.14
      95.5027      2349.69
      95.3598      2441.69
      95.2168      2537.29
      95.0739      2636.61
      94.9309      2739.81
       94.788      2847.03
       94.645      2958.43
      94.5021      3074.17
      94.3591      3194.42
      94.2162      3319.36
      94.0732      3449.17
      93.9302      3584.03
      93.7873      3724.14
      93.6443      3869.72
      93.5014      4020.96
      93.3584      4178.09
      93.2155      4341.33
      93.0725      4510.93
      92.9296      4687.13
      92.7866      4870.18
      92.6436      5060.35
      92.5007      5257.93
      92.3577      5463.18
      92.2148      5676.42
      92.0718      5897.94
      91.9289      6128.08
      91.7859      6367.16
       91.643      6615.53
         91.5      6873.56
       91.357       7141.6
      91.2141      7420.06
      91.0711      7709.33
      90.9282      8009.83
      90.7852         8322
      90.6423      8646.29
      90.4993      8983.17
      90.3564      9333.11
      90.2134      9696.63
      90.0704      10074.3
      89.9275      10466.5
      89.7845        10874
      89.6416      11297.3
      89.4986        11737
      89.3557      12193.7
      89.2127      12668.2
      89.0698        13161
      88.9268      13672.9
      88.7838      14204.7
      88.6409        14757
      88.4979      15330.7
       88.355      15926.7
       88.212      16545.7
      88.0691      17188.7
      87.9261      17856.5
      87.7832      18550.2
      87.6402      19270.8
      87.4972      20019.2
      87.3543      20796.5
      87.2113        21604
      87.0684      22442.6
      86.9254      23313.6
      86.7825      24218.4
      86.6395        25158
      86.4966        26134
      86.3536      27147.7
      86.2107      28200.5
      86.0677        29294
      85.9247      30429.7
      85.7818      31609.3
      85.6388      32834.4
      85.4959      34106.8
      85.3529      35428.2
        85.21      36800.7
       85.067      38226.1
      84.9241      39706.4
      84.7811      41243.8
      84.6381      42840.6
      84.4952      44498.8
      84.3522        46221
      84.2093      48009.5
      84.0663        49867
      83.9234        51796
      83.7804      53799.2
      83.6375      55879.7
      83.4945      58040.2
      83.3515      60283.9
      83.2086      62613.9
      83.0656      65033.7
      82.9227      67546.5
      82.7797        70156
      82.6368      72865.8
      82.4938      75679.9
      82.3509      78602.1
      82.2079      81636.7
      82.0649      84787.9
       81.922      88060.2
       81.779      91458.3
      81.6361      94986.9
      81.4931        98651
      81.3502       102456
      81.2072       106407
      81.0643       110509
      80.9213       114769
      80.7783       119193
      80.6354       123786
      80.4924       128556
      80.3495       133508
      80.2065       138650
      80.0636       143990
      79.9206       149534
      79.7777       155291
      79.6347       161268
      79.4918       167474
      79.3488       173918
      79.2058       180609
      79.0629       187556
      78.9199       194769
       78.777       202258
       78.634       210034
      78.4911       218107
      78.3481       226489
      78.2052       235192
      78.0622       244228
      77.9192       253609
      77.7763       263349
      77.6333       273461
      77.4904       283960
      77.3474       294859
      77.2045       306176
      77.0615       317924
      76.9186       330121
      76.7756       342784
      76.6326       355930
      76.4897       369578
      76.3467       383747
      76.2038       398456
      76.0608       413727
      75.9179       429580
      75.7749       446037
       75.632       463122
       75.489       480858
       75.346       499271
      75.2031       518384
      75.0601       538226
      74.9172       558824
      74.7742       580206
      74.6313       602402
      74.4883       625444
      74.3454       649362
      74.2024       674190
      74.0594       699964
      73.9165       726717
      73.7735       754488
      73.6306       783315
      73.4876       813238
      73.3447       844298
      73.2017       876539
      73.0588       910005
      72.9158       944742
      72.7728       980799
      72.6299  1.01822e+06
      72.4869  1.05707e+06
       72.344  1.09739e+06
       72.201  1.13924e+06
      72.0581  1.18268e+06
      71.9151  1.22777e+06
      71.7722  1.27457e+06
      71.6292  1.32314e+06
      71.4863  1.37356e+06
      71.3433  1.42588e+06
      71.2003  1.48019e+06
      71.0574  1.53655e+06
      70.9144  1.59506e+06
      70.7715  1.65577e+06
      70.6285  1.71879e+06
      70.4856  1.78419e+06
      70.3426  1.85207e+06
      70.1997  1.92252e+06
      70.0567  1.99563e+06
      69.9137  2.07151e+06
      69.7708  2.15026e+06
      69.6278  2.23199e+06
      69.4849  2.31681e+06
      69.3419  2.40483e+06
       69.199  2.49618e+06
       69.056  2.59099e+06
      68.9131  2.68937e+06
      68.7701  2.79147e+06
      68.6271  2.89743e+06
      68.4842  3.00738e+06
      68.3412  3.12149e+06
      68.1983  3.23991e+06
      68.0553  3.36279e+06
      67.9124   3.4903e+06
      67.7694  3.62263e+06
      67.6265  3.75995e+06
      67.4835  3.90244e+06
      67.3405  4.05031e+06
      67.1976  4.20375e+06
      67.0546  4.36297e+06
      66.9117  4.52819e+06
      66.7687  4.69963e+06
      66.6258  4.87752e+06
      66.4828  5.06212e+06
      66.3399  5.25366e+06
      66.1969  5.45241e+06
      66.0539  5.65863e+06
       65.911  5.87262e+06
       65.768  6.09465e+06
      65.6251  6.32503e+06
      65.4821  6.56407e+06
      65.3392  6.81209e+06
      65.1962  7.06944e+06
      65.0533  7.33645e+06
      64.9103  7.61349e+06
      64.7673  7.90093e+06
      64.6244  8.19917e+06
      64.4814   8.5086e+06
      64.3385  8.82964e+06
      64.1955  9.16273e+06
      64.0526  9.50831e+06
      63.9096  9.86685e+06
      63.7667  1.02388e+07
      63.6237  1.06248e+07
      63.4808  1.10252e+07
      63.3378  1.14406e+07
      63.1948  1.18715e+07
      63.0519  1.23186e+07
      62.9089  1.27825e+07
       62.766  1.32637e+07
       62.623  1.37629e+07
      62.4801  1.42808e+07
      62.3371  1.48181e+07
      62.1942  1.53755e+07
      62.0512  1.59537e+07
      61.9082  1.65535e+07
      61.7653  1.71758e+07
      61.6223  1.78213e+07
      61.4794  1.84909e+07
      61.3364  1.91856e+07
      61.1935  1.99062e+07
      61.0505  2.06537e+07
      60.9076  2.14291e+07
      60.7646  2.22334e+07
      60.6216  2.30678e+07
      60.4787  2.39333e+07
      60.3357   2.4831e+07
      60.1928  2.57623e+07
      60.0498  2.67282e+07
      59.9069  2.77302e+07
      59.7639  2.87695e+07
       59.621  2.98475e+07
       59.478  3.09657e+07
       59.335  3.21255e+07
      59.1921  3.33284e+07
      59.0491  3.45762e+07
      58.9062  3.58704e+07
      58.7632  3.72127e+07
      58.6203   3.8605e+07
      58.4773   4.0049e+07
      58.3344  4.15467e+07
      58.1914  4.31001e+07
      58.0484  4.47112e+07
      57.9055  4.63821e+07
      57.7625  4.81151e+07
      57.6196  4.99125e+07
      57.4766  5.17766e+07
      57.3337  5.37099e+07
      57.1907  5.57149e+07
      57.0478  5.77943e+07
      56.9048  5.99509e+07
      56.7619  6.21873e+07
      56.6189  6.45068e+07
      56.4759  6.69121e+07
       56.333  6.94066e+07
        56.19  7.19935e+07
      56.0471  7.46763e+07
      55.9041  7.74583e+07
      55.7612  8.03434e+07
      55.6182  8.33352e+07
      55.4753  8.64377e+07
      55.3323   8.9655e+07
      55.1893  9.29913e+07
      55.0464  9.64509e+07
      54.9034  1.00038e+08
      54.7605  1.03758e+08
      54.6175  1.07616e+08
      54.4746  1.11616e+08
      54.3316  1.15764e+08
      54.1887  1.20065e+08
      54.0457  1.24524e+08
      53.9027  1.29148e+08
      53.7598  1.33943e+08
      53.6168  1.38915e+08
      53.4739   1.4407e+08
      53.3309  1.49415e+08
       53.188  1.54957e+08
       53.045  1.60703e+08
      52.9021  1.66661e+08
      52.7591  1.72838e+08
      52.6161  1.79243e+08
      52.4732  1.85883e+08
      52.3302  1.92768e+08
      52.1873  1.99906e+08
      52.0443  2.07307e+08
      51.9014   2.1498e+08
      51.7584  2.22934e+08
      51.6155  2.31182e+08
      51.4725  2.39732e+08
      51.3295  2.48596e+08
      51.1866  2.57786e+08
      51.0436  2.67314e+08
      50.9007  2.77191e+08
      50.7577   2.8743e+08
      50.6148  2.98045e+08
      50.4718   3.0905e+08
      50.3289  3.20458e+08
      50.1859  3.32284e+08
      50.0429  3.44543e+08
         49.9  3.57252e+08
       49.757  3.70427e+08
      49.6141  3.84083e+08
      49.4711   3.9824e+08
      49.3282  4.12915e+08
      49.1852  4.28127e+08
      49.0423  4.43895e+08
      48.8993   4.6024e+08
      48.7564  4.77183e+08
      48.6134  4.94744e+08
      48.4704  5.12948e+08
      48.3275  5.31817e+08
      48.1845  5.51375e+08
      48.0416  5.71646e+08
      47.8986  5.92658e+08
      47.7557  6.14437e+08
      47.6127   6.3701e+08
      47.4698  6.60407e+08
      47.3268  6.84657e+08
      47.1838   7.0979e+08
      47.0409   7.3584e+08
      46.8979  7.62839e+08
       46.755  7.90821e+08
       46.612  8.19822e+08
      46.4691  8.49879e+08
      46.3261   8.8103e+08
      46.1832  9.13314e+08
      46.0402  9.46772e+08
      45.8972  9.81447e+08
      45.7543  1.01738e+09
      45.6113  1.05462e+09
      45.4684  1.09322e+09
      45.3254  1.13322e+09
      45.1825  1.17466e+09
      45.0395  1.21762e+09
      44.8966  1.26213e+09
      44.7536  1.30826e+09
      44.6106  1.35606e+09
      44.4677  1.40559e+09
      44.3247  1.45692e+09
      44.1818  1.51011e+09
      44.0388  1.56523e+09
      43.8959  1.62234e+09
      43.7529  1.68153e+09
        43.61  1.74285e+09
       43.467  1.80639e+09
       43.324  1.87224e+09
      43.1811  1.94046e+09
      43.0381  2.01115e+09
      42.8952   2.0844e+09
      42.7522  2.16029e+09
      42.6093  2.23892e+09
      42.4663   2.3204e+09
      42.3234  2.40481e+09
      42.1804  2.49228e+09
      42.0374  2.58289e+09
      41.8945  2.67678e+09
      41.7515  2.77406e+09
      41.6086  2.87484e+09
      41.4656  2.97925e+09
      41.3227  3.08742e+09
      41.1797  3.19949e+09
      41.0368   3.3156e+09
      40.8938  3.43589e+09
      40.7509   3.5605e+09
      40.6079   3.6896e+09
      40.4649  3.82334e+09
       40.322  3.96189e+09
       40.179  4.10542e+09
      40.0361  4.25411e+09
      39.8931  4.40814e+09
      39.7502   4.5677e+09
      39.6072  4.73299e+09
      39.4643  4.90421e+09
      39.3213  5.08158e+09
      39.1783   5.2653e+09
      39.0354  5.45562e+09
      38.8924  5.65275e+09
      38.7495  5.85695e+09
      38.6065  6.06847e+09
      38.4636  6.28755e+09
      38.3206  6.51449e+09
      38.1777  6.74954e+09
      38.0347  6.99301e+09
      37.8917  7.24518e+09
      37.7488  7.50637e+09
      37.6058  7.77689e+09
      37.4629  8.05709e+09
      37.3199  8.34729e+09
       37.177  8.64785e+09
       37.034  8.95914e+09
      36.8911  9.28155e+09
      36.7481  9.61545e+09
      36.6051  9.96127e+09
      36.4622  1.03194e+10
      36.3192  1.06903e+10
      36.1763  1.10744e+10
      36.0333  1.14723e+10
      35.8904  1.18842e+10
      35.7474  1.23109e+10
      35.6045  1.27527e+10
      35.4615  1.32102e+10
      35.3185   1.3684e+10
      35.1756  1.41747e+10
      35.0326  1.46828e+10
      34.8897  1.52089e+10
      34.7467  1.57537e+10
      34.6038  1.63179e+10
      34.4608  1.69021e+10
      34.3179   1.7507e+10
      34.1749  1.81334e+10
      34.0319  1.87819e+10
       33.889  1.94535e+10
       33.746  2.01489e+10
      33.6031  2.08689e+10
      33.4601  2.16143e+10
      33.3172  2.23862e+10
      33.1742  2.31854e+10
      33.0313  2.40128e+10
      32.8883  2.48695e+10
      32.7454  2.57565e+10
      32.6024  2.66749e+10
      32.4594  2.76256e+10
      32.3165    2.861e+10
      32.1735  2.96291e+10
      32.0306  3.06841e+10
      31.8876  3.17764e+10
      31.7447  3.29072e+10
      31.6017  3.40778e+10
      31.4588  3.52897e+10
      31.3158  3.65443e+10
