Temperature = 1659.59K
THERMAL DISTRIBUTIONS:
  E, kcal/mol           W1
      145.406     0.112184
      145.263     0.116396
       145.12     0.120765
      144.977     0.125299
      144.834     0.130002
      144.691     0.134881
      144.548     0.139943
      144.405     0.145194
      144.262     0.150642
      144.119     0.156293
      143.976     0.162157
      143.833     0.168239
       143.69     0.174549
      143.547     0.181095
      143.404     0.187885
      143.261      0.19493
      143.118     0.202238
      142.975      0.20982
      142.832     0.217684
      142.689     0.225843
      142.546     0.234307
      142.404     0.243087
      142.261     0.252195
      142.118     0.261643
      141.975     0.271445
      141.832     0.281612
      141.689      0.29216
      141.546     0.303101
      141.403     0.314451
       141.26     0.326224
      141.117     0.338438
      140.974     0.351107
      140.831     0.364249
      140.688     0.377882
      140.545     0.392024
      140.402     0.406693
      140.259      0.42191
      140.116     0.437694
      139.973     0.454067
       139.83     0.471051
      139.687     0.488669
      139.544     0.506943
      139.401     0.525899
      139.259     0.545562
      139.116     0.565958
      138.973     0.587114
       138.83     0.609059
      138.687     0.631822
      138.544     0.655433
      138.401     0.679923
      138.258     0.705327
      138.115     0.731676
      137.972     0.759007
      137.829     0.787357
      137.686     0.816762
      137.543     0.847262
        137.4     0.878897
      137.257     0.911711
      137.114     0.945746
      136.971     0.981048
      136.828      1.01766
      136.685      1.05564
      136.542      1.09503
      136.399      1.13589
      136.256      1.17827
      136.114      1.22222
      135.971      1.26781
      135.828      1.31509
      135.685      1.36414
      135.542        1.415
      135.399      1.46776
      135.256      1.52248
      135.113      1.57923
       134.97      1.63809
      134.827      1.69914
      134.684      1.76245
      134.541      1.82812
      134.398      1.89623
      134.255      1.96687
      134.112      2.04013
      133.969      2.11611
      133.826      2.19492
      133.683      2.27665
       133.54      2.36141
      133.397      2.44932
      133.254       2.5405
      133.111      2.63505
      132.968      2.73312
      132.826      2.83483
      132.683       2.9403
       132.54      3.04969
      132.397      3.16314
      132.254       3.2808
      132.111      3.40282
      131.968      3.52936
      131.825      3.66059
      131.682      3.79669
      131.539      3.93784
      131.396      4.08421
      131.253      4.23601
       131.11      4.39343
      130.967      4.55669
      130.824        4.726
      130.681      4.90157
      130.538      5.08365
      130.395      5.27247
      130.252      5.46828
      130.109      5.67134
      129.966      5.88192
      129.823       6.1003
      129.681      6.32675
      129.538      6.56159
      129.395      6.80511
      129.252      7.05765
      129.109      7.31953
      128.966      7.59109
      128.823       7.8727
       128.68      8.16472
      128.537      8.46754
      128.394      8.78156
      128.251      9.10718
      128.108      9.44484
      127.965      9.79498
      127.822      10.1581
      127.679      10.5346
      127.536       10.925
      127.393      11.3298
       127.25      11.7496
      127.107      12.1849
      126.964      12.6362
      126.821      13.1042
      126.678      13.5895
      126.535      14.0928
      126.393      14.6146
       126.25      15.1556
      126.107      15.7166
      125.964      16.2983
      125.821      16.9015
      125.678       17.527
      125.535      18.1755
      125.392      18.8479
      125.249      19.5451
      125.106       20.268
      124.963      21.0176
       124.82      21.7948
      124.677      22.6006
      124.534      23.4362
      124.391      24.3025
      124.248      25.2007
      124.105      26.1321
      123.962      27.0977
      123.819       28.099
      123.676      29.1371
      123.533      30.2134
       123.39      31.3293
      123.248      32.4863
      123.105      33.6859
      122.962      34.9297
      122.819      36.2192
      122.676      37.5562
      122.533      38.9424
       122.39      40.3795
      122.247      41.8695
      122.104      43.4144
      121.961       45.016
      121.818      46.6765
      121.675       48.398
      121.532      50.1829
      121.389      52.0333
      121.246      53.9517
      121.103      55.9407
       120.96      58.0027
      120.817      60.1404
      120.674      62.3567
      120.531      64.6544
      120.388      67.0364
      120.245      69.5059
      120.103      72.0661
       119.96      74.7202
      119.817      77.4718
      119.674      80.3243
      119.531      83.2815
      119.388      86.3472
      119.245      89.5254
      119.102      92.8201
      118.959      96.2357
      118.816      99.7765
      118.673      103.447
       118.53      107.252
      118.387      111.197
      118.244      115.286
      118.101      119.525
      117.958       123.92
      117.815      128.475
      117.672      133.198
      117.529      138.093
      117.386      143.168
      117.243      148.428
        117.1      153.881
      116.957      159.534
      116.815      165.393
      116.672      171.467
      116.529      177.764
      116.386       184.29
      116.243      191.056
        116.1      198.069
      115.957      205.338
      115.814      212.873
      115.671      220.684
      115.528      228.781
      115.385      237.173
      115.242      245.872
      115.099      254.889
      114.956      264.236
      114.813      273.924
       114.67      283.966
      114.527      294.374
      114.384      305.163
      114.241      316.346
      114.098      327.937
      113.955      339.951
      113.812      352.404
       113.67      365.312
      113.527       378.69
      113.384      392.557
      113.241      406.929
      113.098      421.826
      112.955      437.266
      112.812      453.269
      112.669      469.856
      112.526      487.047
      112.383      504.865
       112.24      523.332
      112.097      542.473
      111.954      562.311
      111.811      582.871
      111.668      604.181
      111.525      626.267
      111.382      649.157
      111.239      672.881
      111.096      697.468
      110.953       722.95
       110.81       749.36
      110.667      776.731
      110.524      805.099
      110.382      834.498
      110.239      864.966
      110.096      896.543
      109.953      929.268
       109.81      963.184
      109.667      998.332
      109.524      1034.76
      109.381      1072.51
      109.238      1111.63
      109.095      1152.17
      108.952      1194.19
      108.809      1237.73
      108.666      1282.86
      108.523      1329.62
       108.38      1378.08
      108.237       1428.3
      108.094      1480.35
      107.951      1534.28
      107.808      1590.17
      107.665      1648.09
      107.522      1708.11
      107.379       1770.3
      107.237      1834.75
      107.094      1901.54
      106.951      1970.76
      106.808      2042.48
      106.665       2116.8
      106.522      2193.81
      106.379      2273.62
      106.236      2356.31
      106.093      2442.01
       105.95       2530.8
      105.807      2622.82
      105.664      2718.16
      105.521      2816.96
      105.378      2919.33
      105.235      3025.41
      105.092      3135.33
      104.949      3249.23
      104.806      3367.24
      104.663      3489.53
       104.52      3616.24
      104.377      3747.53
      104.234      3883.57
      104.092      4024.52
      103.949      4170.58
      103.806      4321.91
      103.663      4478.71
       103.52      4641.17
      103.377      4809.51
      103.234      4983.93
      103.091      5164.64
      102.948      5351.88
      102.805      5545.88
      102.662      5746.89
      102.519      5955.15
      102.376      6170.92
      102.233      6394.49
       102.09      6626.11
      101.947       6866.1
      101.804      7114.74
      101.661      7372.34
      101.518      7639.24
      101.375      7915.75
      101.232      8202.23
      101.089      8499.04
      100.946      8806.54
      100.804      9125.12
      100.661      9455.18
      100.518      9797.13
      100.375      10151.4
      100.232      10518.4
      100.089      10898.6
      99.9458      11292.5
      99.8028      11700.6
      99.6599      12123.4
      99.5169      12561.4
       99.374      13015.2
       99.231      13485.2
      99.0881      13972.2
      98.9451      14476.7
      98.8022      14999.3
      98.6592      15540.7
      98.5162      16101.5
      98.3733      16682.6
      98.2303      17284.4
      98.0874      17907.9
      97.9444      18553.8
      97.8015      19222.9
      97.6585      19916.1
      97.5156      20634.1
      97.3726      21377.9
      97.2296      22148.3
      97.0867      22946.4
      96.9437      23773.2
      96.8008      24629.6
      96.6578      25516.7
      96.5149      26435.7
      96.3719      27387.5
       96.229      28373.5
       96.086      29394.9
      95.9431      30452.8
      95.8001      31548.7
      95.6571      32683.8
      95.5142      33859.6
      95.3712      35077.5
      95.2283        36339
      95.0853      37645.6
      94.9424      38999.1
      94.7994      40400.9
      94.6565        41853
      94.5135      43356.9
      94.3705      44914.7
      94.2276      46528.2
      94.0846      48199.4
      93.9417      49930.4
      93.7987      51723.2
      93.6558      53580.2
      93.5128      55503.4
      93.3699      57495.4
      93.2269      59558.6
      93.0839      61695.5
       92.941      63908.6
       92.798      66200.8
      92.6551      68574.9
      92.5121      71033.7
      92.3692      73580.2
      92.2262      76217.6
      92.0833      78949.1
      91.9403        81778
      91.7973      84707.9
      91.6544      87742.2
      91.5114      90884.7
      91.3685      94139.2
      91.2255      97509.7
      91.0826       101000
      90.9396       104615
      90.7967       108359
      90.6537       112236
      90.5107       116251
      90.3678       120409
      90.2248       124716
      90.0819       129175
      89.9389       133793
       89.796       138576
       89.653       143528
      89.5101       148657
      89.3671       153968
      89.2242       159468
      89.0812       165163
      88.9382       171061
      88.7953       177169
      88.6523       183493
      88.5094       190042
      88.3664       196824
      88.2235       203847
      88.0805       211119
      87.9376       218649
      87.7946       226446
      87.6516       234520
      87.5087       242881
      87.3657       251538
      87.2228       260502
      87.0798       269784
      86.9369       279395
      86.7939       289347
       86.651       299652
       86.508       310322
       86.365       321369
      86.2221       332809
      86.0791       344653
      85.9362       356917
      85.7932       369615
      85.6503       382762
      85.5073       396375
      85.3644       410469
      85.2214       425062
      85.0784       440171
      84.9355       455815
      84.7925       472012
      84.6496       488781
      84.5066       506143
      84.3637       524119
      84.2207       542730
      84.0778       561998
      83.9348       581947
      83.7918       602600
      83.6489       623983
      83.5059       646120
       83.363       669039
        83.22       692766
      83.0771       717331
      82.9341       742762
      82.7912       769090
      82.6482       796346
      82.5052       824563
      82.3623       853775
      82.2193       884017
      82.0764       915324
      81.9334       947733
      81.7905       981285
      81.6475  1.01602e+06
      81.5046  1.05197e+06
      81.3616  1.08919e+06
      81.2187  1.12773e+06
      81.0757  1.16761e+06
      80.9327   1.2089e+06
      80.7898  1.25165e+06
      80.6468  1.29589e+06
      80.5039   1.3417e+06
      80.3609  1.38911e+06
       80.218  1.43819e+06
       80.075  1.48899e+06
      79.9321  1.54158e+06
      79.7891  1.59601e+06
      79.6461  1.65236e+06
      79.5032  1.71068e+06
      79.3602  1.77106e+06
      79.2173  1.83355e+06
      79.0743  1.89824e+06
      78.9314  1.96519e+06
      78.7884  2.03449e+06
      78.6455  2.10623e+06
      78.5025  2.18048e+06
      78.3595  2.25733e+06
      78.2166  2.33688e+06
      78.0736  2.41921e+06
      77.9307  2.50443e+06
      77.7877  2.59264e+06
      77.6448  2.68393e+06
      77.5018  2.77842e+06
      77.3589  2.87622e+06
      77.2159  2.97744e+06
      77.0729  3.08221e+06
        76.93  3.19064e+06
       76.787  3.30286e+06
      76.6441  3.41901e+06
      76.5011  3.53922e+06
      76.3582  3.66363e+06
      76.2152  3.79239e+06
      76.0723  3.92565e+06
      75.9293  4.06357e+06
      75.7863   4.2063e+06
      75.6434  4.35402e+06
      75.5004   4.5069e+06
      75.3575  4.66511e+06
      75.2145  4.82885e+06
      75.0716   4.9983e+06
      74.9286  5.17366e+06
      74.7857  5.35514e+06
      74.6427  5.54295e+06
      74.4997  5.73731e+06
      74.3568  5.93844e+06
      74.2138  6.14659e+06
      74.0709  6.36198e+06
      73.9279  6.58488e+06
       73.785  6.81555e+06
       73.642  7.05425e+06
      73.4991  7.30125e+06
      73.3561  7.55686e+06
      73.2132  7.82136e+06
      73.0702  8.09507e+06
      72.9272   8.3783e+06
      72.7843  8.67137e+06
      72.6413  8.97464e+06
      72.4984  9.28846e+06
      72.3554  9.61318e+06
      72.2125  9.94918e+06
      72.0695  1.02969e+07
      71.9266  1.06566e+07
      71.7836  1.10289e+07
      71.6406   1.1414e+07
      71.4977  1.18126e+07
      71.3547   1.2225e+07
      71.2118  1.26517e+07
      71.0688  1.30931e+07
      70.9259  1.35499e+07
      70.7829  1.40226e+07
        70.64  1.45116e+07
       70.497  1.50176e+07
       70.354  1.55411e+07
      70.2111  1.60828e+07
      70.0681  1.66432e+07
      69.9252   1.7223e+07
      69.7822  1.78229e+07
      69.6393  1.84436e+07
      69.4963  1.90857e+07
      69.3534  1.97501e+07
      69.2104  2.04374e+07
      69.0674  2.11485e+07
      68.9245  2.18842e+07
      68.7815  2.26454e+07
      68.6386  2.34328e+07
      68.4956  2.42475e+07
      68.3527  2.50903e+07
      68.2097  2.59622e+07
      68.0668  2.68642e+07
      67.9238  2.77974e+07
      67.7808  2.87628e+07
      67.6379  2.97615e+07
      67.4949  3.07946e+07
       67.352  3.18634e+07
       67.209   3.2969e+07
      67.0661  3.41128e+07
      66.9231  3.52959e+07
      66.7802  3.65199e+07
      66.6372   3.7786e+07
      66.4943  3.90958e+07
      66.3513  4.04506e+07
      66.2083  4.18521e+07
      66.0654  4.33018e+07
      65.9224  4.48014e+07
      65.7795  4.63526e+07
      65.6365  4.79572e+07
      65.4936   4.9617e+07
      65.3506  5.13338e+07
      65.2077  5.31096e+07
      65.0647  5.49465e+07
      64.9217  5.68465e+07
      64.7788  5.88117e+07
      64.6358  6.08445e+07
      64.4929   6.2947e+07
      64.3499  6.51217e+07
       64.207   6.7371e+07
       64.064  6.96976e+07
      63.9211  7.21039e+07
      63.7781  7.45927e+07
      63.6351  7.71669e+07
      63.4922  7.98293e+07
      63.3492  8.25829e+07
      63.2063  8.54309e+07
      63.0633  8.83764e+07
      62.9204  9.14228e+07
      62.7774  9.45735e+07
      62.6345  9.78321e+07
      62.4915  1.01202e+08
      62.3485  1.04687e+08
      62.2056  1.08292e+08
      62.0626   1.1202e+08
      61.9197  1.15875e+08
      61.7767  1.19862e+08
      61.6338  1.23985e+08
      61.4908   1.2825e+08
      61.3479  1.32659e+08
      61.2049   1.3722e+08
      61.0619  1.41936e+08
       60.919  1.46813e+08
       60.776  1.51856e+08
      60.6331  1.57071e+08
      60.4901  1.62465e+08
      60.3472  1.68042e+08
      60.2042  1.73809e+08
      60.0613  1.79773e+08
      59.9183   1.8594e+08
      59.7753  1.92317e+08
      59.6324  1.98911e+08
      59.4894   2.0573e+08
      59.3465   2.1278e+08
      59.2035  2.20071e+08
      59.0606   2.2761e+08
      58.9176  2.35405e+08
      58.7747  2.43465e+08
      58.6317  2.51799e+08
      58.4888  2.60416e+08
      58.3458  2.69326e+08
      58.2028  2.78539e+08
      58.0599  2.88064e+08
      57.9169  2.97913e+08
       57.774  3.08096e+08
       57.631  3.18625e+08
      57.4881  3.29511e+08
      57.3451  3.40766e+08
      57.2022  3.52403e+08
      57.0592  3.64434e+08
      56.9162  3.76872e+08
      56.7733  3.89733e+08
      56.6303  4.03028e+08
      56.4874  4.16774e+08
      56.3444  4.30986e+08
      56.2015  4.45678e+08
      56.0585  4.60867e+08
      55.9156   4.7657e+08
      55.7726  4.92804e+08
      55.6296  5.09587e+08
      55.4867  5.26938e+08
      55.3437  5.44874e+08
      55.2008  5.63417e+08
      55.0578  5.82585e+08
      54.9149  6.02401e+08
      54.7719  6.22886e+08
       54.629  6.44061e+08
       54.486  6.65952e+08
       54.343   6.8858e+08
      54.2001  7.11972e+08
      54.0571  7.36151e+08
      53.9142  7.61146e+08
      53.7712  7.86983e+08
      53.6283   8.1369e+08
      53.4853  8.41296e+08
      53.3424  8.69832e+08
      53.1994  8.99328e+08
      53.0564  9.29816e+08
      52.9135   9.6133e+08
      52.7705  9.93903e+08
      52.6276  1.02757e+09
      52.4846  1.06237e+09
      52.3417  1.09834e+09
      52.1987  1.13552e+09
      52.0558  1.17394e+09
      51.9128  1.21366e+09
      51.7698  1.25471e+09
      51.6269  1.29713e+09
      51.4839  1.34098e+09
       51.341   1.3863e+09
       51.198  1.43314e+09
      51.0551  1.48154e+09
      50.9121  1.53157e+09
      50.7692  1.58328e+09
      50.6262  1.63671e+09
      50.4833  1.69194e+09
      50.3403  1.74901e+09
      50.1973  1.80799e+09
      50.0544  1.86895e+09
      49.9114  1.93194e+09
      49.7685  1.99704e+09
      49.6255  2.06432e+09
      49.4826  2.13384e+09
      49.3396  2.20568e+09
      49.1967  2.27992e+09
      49.0537  2.35664e+09
      48.9107  2.43592e+09
      48.7678  2.51785e+09
      48.6248  2.60251e+09
      48.4819  2.68999e+09
      48.3389  2.78038e+09
       48.196  2.87379e+09
       48.053  2.97031e+09
      47.9101  3.07004e+09
      47.7671  3.17309e+09
      47.6241  3.27957e+09
      47.4812   3.3896e+09
      47.3382  3.50328e+09
      47.1953  3.62075e+09
      47.0523  3.74212e+09
      46.9094  3.86752e+09
      46.7664  3.99709e+09
      46.6235  4.13096e+09
      46.4805  4.26927e+09
      46.3375  4.41218e+09
      46.1946  4.55983e+09
      46.0516  4.71237e+09
      45.9087  4.86998e+09
      45.7657   5.0328e+09
      45.6228  5.20103e+09
      45.4798  5.37483e+09
      45.3369  5.55438e+09
      45.1939  5.73988e+09
      45.0509  5.93152e+09
       44.908   6.1295e+09
       44.765  6.33402e+09
      44.6221  6.54531e+09
      44.4791  6.76359e+09
      44.3362  6.98908e+09
      44.1932  7.22202e+09
      44.0503  7.46265e+09
      43.9073  7.71123e+09
      43.7643  7.96801e+09
      43.6214  8.23327e+09
      43.4784  8.50727e+09
      43.3355  8.79031e+09
      43.1925  9.08268e+09
      43.0496  9.38468e+09
      42.9066  9.69663e+09
      42.7637  1.00189e+10
      42.6207  1.03517e+10
      42.4778  1.06955e+10
      42.3348  1.10506e+10
      42.1918  1.14174e+10
      42.0489  1.17962e+10
      41.9059  1.21875e+10
       41.763  1.25916e+10
        41.62  1.30091e+10
      41.4771  1.34402e+10
      41.3341  1.38855e+10
      41.1912  1.43454e+10
      41.0482  1.48203e+10
      40.9052  1.53109e+10
      40.7623  1.58175e+10
      40.6193  1.63408e+10
      40.4764  1.68812e+10
      40.3334  1.74392e+10
      40.1905  1.80156e+10
      40.0475  1.86108e+10
