Temperature = 1369.71K
THERMAL DISTRIBUTIONS:
  E, kcal/mol           W1
      122.364   0.00246408
      122.221   0.00257855
      122.078   0.00269833
      121.935   0.00282366
      121.792    0.0029548
      121.649   0.00309201
      121.506   0.00323558
      121.363   0.00338581
       121.22   0.00354299
      121.077   0.00370746
      120.935   0.00387954
      120.792    0.0040596
      120.649   0.00424799
      120.506   0.00444511
      120.363   0.00465135
       120.22   0.00486714
      120.077   0.00509292
      119.934   0.00532915
      119.791   0.00557631
      119.648   0.00583491
      119.505   0.00610548
      119.362   0.00638857
      119.219   0.00668475
      119.076   0.00699463
      118.933   0.00731885
       118.79   0.00765806
      118.647   0.00801296
      118.504   0.00838427
      118.361   0.00877275
      118.218   0.00917918
      118.075    0.0096044
      117.932    0.0100493
      117.789    0.0105147
      117.647    0.0110017
      117.504    0.0115111
      117.361    0.0120441
      117.218    0.0126017
      117.075    0.0131851
      116.932    0.0137954
      116.789    0.0144339
      116.646    0.0151018
      116.503    0.0158007
       116.36    0.0165318
      116.217    0.0172966
      116.074    0.0180967
      115.931    0.0189338
      115.788    0.0198095
      115.645    0.0207256
      115.502     0.021684
      115.359    0.0226866
      115.216    0.0237354
      115.073    0.0248326
       114.93    0.0259804
      114.787    0.0271812
      114.644    0.0284373
      114.502    0.0297513
      114.359    0.0311259
      114.216    0.0325639
      114.073    0.0340682
       113.93    0.0356417
      113.787    0.0372878
      113.644    0.0390097
      113.501     0.040811
      113.358    0.0426953
      113.215    0.0446663
      113.072    0.0467281
      112.929    0.0488849
      112.786    0.0511409
      112.643    0.0535009
        112.5    0.0559695
      112.357    0.0585517
      112.214    0.0612528
      112.071    0.0640781
      111.928    0.0670335
      111.785    0.0701249
      111.642    0.0733585
      111.499    0.0767409
      111.356    0.0802788
      111.214    0.0839794
      111.071    0.0878503
      110.928    0.0918991
      110.785    0.0961341
      110.642     0.100564
      110.499     0.105197
      110.356     0.110043
      110.213     0.115112
       110.07     0.120414
      109.927     0.125959
      109.784      0.13176
      109.641     0.137826
      109.498     0.144172
      109.355     0.150808
      109.212      0.15775
      109.069      0.16501
      108.926     0.172604
      108.783     0.180546
       108.64     0.188852
      108.497      0.19754
      108.354     0.206627
      108.211      0.21613
      108.069      0.22607
      107.926     0.236465
      107.783     0.247338
       107.64     0.258709
      107.497     0.270601
      107.354     0.283039
      107.211     0.296047
      107.068     0.309651
      106.925     0.323879
      106.782     0.338759
      106.639     0.354321
      106.496     0.370596
      106.353     0.387617
       106.21     0.405417
      106.067     0.424033
      105.924     0.443502
      105.781     0.463862
      105.638     0.485154
      105.495     0.507421
      105.352     0.530708
      105.209     0.555061
      105.066     0.580528
      104.924      0.60716
      104.781     0.635012
      104.638     0.664137
      104.495     0.694595
      104.352     0.726447
      104.209     0.759755
      104.066     0.794586
      103.923     0.831011
       103.78       0.8691
      103.637     0.908931
      103.494     0.950582
      103.351     0.994138
      103.208      1.03968
      103.065      1.08731
      102.922      1.13711
      102.779      1.18919
      102.636      1.24365
      102.493      1.30059
       102.35      1.36014
      102.207       1.4224
      102.064      1.48751
      101.921      1.55559
      101.778      1.62677
      101.636      1.70121
      101.493      1.77904
       101.35      1.86042
      101.207      1.94552
      101.064      2.03449
      100.921      2.12753
      100.778      2.22481
      100.635      2.32653
      100.492      2.43288
      100.349      2.54408
      100.206      2.66035
      100.063      2.78192
      99.9201      2.90904
      99.7771      3.04194
      99.6342       3.1809
      99.4912      3.32619
      99.3482       3.4781
      99.2053      3.63692
      99.0623      3.80298
      98.9194       3.9766
      98.7764      4.15813
      98.6335      4.34792
      98.4905      4.54635
      98.3476       4.7538
      98.2046       4.9707
      98.0616      5.19747
      97.9187      5.43456
      97.7757      5.68243
      97.6328      5.94157
      97.4898       6.2125
      97.3469      6.49575
      97.2039      6.79188
       97.061      7.10147
       96.918      7.42513
      96.7751      7.76351
      96.6321      8.11726
      96.4891      8.48708
      96.3462      8.87371
      96.2032       9.2779
      96.0603      9.70044
      95.9173      10.1422
      95.7744       10.604
      95.6314      11.0867
      95.4885      11.5914
      95.3455       12.119
      95.2025      12.6705
      95.0596      13.2471
      94.9166      13.8498
      94.7737      14.4799
      94.6307      15.1385
      94.4878       15.827
      94.3448      16.5468
      94.2019      17.2992
      94.0589      18.0857
      93.9159      18.9078
       93.773      19.7672
        93.63      20.6656
      93.4871      21.6047
      93.3441      22.5863
      93.2012      23.6124
      93.0582       24.685
      92.9153      25.8061
      92.7723       26.978
      92.6293       28.203
      92.4864      29.4835
      92.3434      30.8219
      92.2005      32.2208
      92.0575      33.6831
      91.9146      35.2116
      91.7716      36.8092
      91.6287      38.4791
      91.4857      40.2245
      91.3427      42.0489
      91.1998      43.9558
      91.0568      45.9488
      90.9139       48.032
      90.7709      50.2093
       90.628      52.4851
       90.485      54.8637
      90.3421      57.3497
      90.1991      59.9481
      90.0562      62.6638
      89.9132      65.5022
      89.7702      68.4687
      89.6273      71.5692
      89.4843      74.8097
      89.3414      78.1965
      89.1984      81.7361
      89.0555      85.4354
      88.9125      89.3017
      88.7696      93.3424
      88.6266      97.5654
      88.4836      101.979
      88.3407      106.591
      88.1977      111.412
      88.0548      116.449
      87.9118      121.714
      87.7689      127.216
      87.6259      132.967
       87.483      138.976
        87.34      145.256
       87.197      151.818
      87.0541      158.677
      86.9111      165.844
      86.7682      173.334
      86.6252      181.161
      86.4823      189.341
      86.3393      197.888
      86.1964      206.821
      86.0534      216.155
      85.9104      225.909
      85.7675      236.102
      85.6245      246.754
      85.4816      257.884
      85.3386      269.515
      85.1957      281.668
      85.0527      294.368
      84.9098      307.639
      84.7668      321.507
      84.6238      335.997
      84.4809      351.138
      84.3379      366.959
       84.195      383.491
       84.052      400.766
      83.9091      418.815
      83.7661      437.676
      83.6232      457.382
      83.4802      477.974
      83.3372      499.489
      83.1943      521.969
      83.0513      545.458
      82.9084          570
      82.7654      595.643
      82.6225      622.436
      82.4795       650.43
      82.3366      679.679
      82.1936      710.239
      82.0507      742.169
      81.9077      775.529
      81.7647      810.383
      81.6218      846.799
      81.4788      884.846
      81.3359      924.596
      81.1929      966.127
        81.05      1009.52
       80.907      1054.85
      80.7641      1102.21
      80.6211      1151.69
      80.4781      1203.38
      80.3352      1257.39
      80.1922      1313.81
      80.0493      1372.75
      79.9063      1434.33
      79.7634      1498.66
      79.6204      1565.87
      79.4775      1636.08
      79.3345      1709.43
      79.1915      1786.06
      79.0486      1866.11
      78.9056      1949.73
      78.7627      2037.09
      78.6197      2128.35
      78.4768      2223.68
      78.3338      2323.27
      78.1909      2427.31
      78.0479      2535.98
      77.9049      2649.51
       77.762       2768.1
       77.619      2891.97
      77.4761      3021.38
      77.3331      3156.55
      77.1902      3297.75
      77.0472      3445.24
      76.9043      3599.31
      76.7613      3760.24
      76.6183      3928.34
      76.4754      4103.93
      76.3324      4287.34
      76.1895      4478.92
      76.0465      4679.03
      75.9036      4888.04
      75.7606      5106.36
      75.6177       5334.4
      75.4747      5572.58
      75.3317      5821.36
      75.1888      6081.21
      75.0458      6352.61
      74.9029      6636.08
      74.7599      6932.15
       74.617      7241.39
       74.474      7564.37
      74.3311      7901.71
      74.1881      8254.03
      74.0452         8622
      73.9022      9006.32
      73.7592      9407.71
      73.6163      9826.91
      73.4733      10264.7
      73.3304        10722
      73.1874      11199.5
      73.0445      11698.3
      72.9015      12219.1
      72.7586      12763.1
      72.6156      13331.2
      72.4726      13924.5
      72.3297      14544.1
      72.1867      15191.2
      72.0438      15866.9
      71.9008      16572.6
      71.7579      17309.5
      71.6149      18079.1
       71.472      18882.8
       71.329      19722.1
       71.186      20598.5
      71.0431      21513.8
      70.9001      22469.5
      70.7572      23467.6
      70.6142      24509.8
      70.4713      25598.1
      70.3283      26734.6
      70.1854      27921.3
      70.0424      29160.5
      69.8994      30454.5
      69.7565      31805.6
      69.6135      33216.5
      69.4706      34689.8
      69.3276      36228.1
      69.1847      37834.4
      69.0417      39511.6
      68.8988      41262.9
      68.7558      43091.5
      68.6128      45000.8
      68.4699      46994.3
      68.3269      49075.9
       68.184      51249.3
       68.041      53518.5
      67.8981      55887.9
      67.7551      58361.7
      67.6122      60944.5
      67.4692      63641.3
      67.3263      66456.8
      67.1833      69396.5
      67.0403      72465.6
      66.8974        75670
      66.7544      79015.4
      66.6115      82508.2
      66.4685      86154.8
      66.3256      89961.8
      66.1826      93936.4
      66.0397      98085.9
      65.8967       102418
      65.7537       106941
      65.6108       111662
      65.4678       116591
      65.3249       121737
      65.1819       127109
       65.039       132717
       64.896       138571
      64.7531       144683
      64.6101       151063
      64.4671       157723
      64.3242       164676
      64.1812       171934
      64.0383       179510
      63.8953       187419
      63.7524       195675
      63.6094       204293
      63.4665       213289
      63.3235       222679
      63.1805       232481
      63.0376       242713
      62.8946       253393
      62.7517       264541
      62.6087       276178
      62.4658       288324
      62.3228       301002
      62.1799       314235
      62.0369       328048
      61.8939       342465
       61.751       357513
       61.608       373219
      61.4651       389612
      61.3221       406722
      61.1792       424580
      61.0362       443219
      60.8933       462673
      60.7503       482977
      60.6073       504168
      60.4644       526285
      60.3214       549367
      60.1785       573458
      60.0355       598600
      59.8926       624839
      59.7496       652224
      59.6067       680804
      59.4637       710630
      59.3208       741758
      59.1778       774242
      59.0348       808143
      58.8919       843522
      58.7489       880442
       58.606       918972
       58.463       959179
      58.3201  1.00114e+06
      58.1771  1.04492e+06
      58.0342  1.09062e+06
      57.8912   1.1383e+06
      57.7482  1.18806e+06
      57.6053  1.23998e+06
      57.4623  1.29416e+06
      57.3194  1.35069e+06
      57.1764  1.40969e+06
      57.0335  1.47125e+06
      56.8905  1.53549e+06
      56.7476  1.60251e+06
      56.6046  1.67245e+06
      56.4616  1.74543e+06
      56.3187  1.82158e+06
      56.1757  1.90104e+06
      56.0328  1.98394e+06
      55.8898  2.07044e+06
      55.7469   2.1607e+06
      55.6039  2.25487e+06
       55.461  2.35313e+06
       55.318  2.45565e+06
       55.175  2.56262e+06
      55.0321  2.67422e+06
      54.8891  2.79066e+06
      54.7462  2.91215e+06
      54.6032   3.0389e+06
      54.4603  3.17114e+06
      54.3173   3.3091e+06
      54.1744  3.45304e+06
      54.0314  3.60321e+06
      53.8884  3.75988e+06
      53.7455  3.92333e+06
      53.6025  4.09386e+06
      53.4596  4.27175e+06
      53.3166  4.45734e+06
      53.1737  4.65096e+06
      53.0307  4.85294e+06
      52.8878  5.06365e+06
      52.7448  5.28346e+06
      52.6018  5.51278e+06
      52.4589  5.75199e+06
      52.3159  6.00153e+06
       52.173  6.26185e+06
        52.03   6.5334e+06
      51.8871  6.81667e+06
      51.7441  7.11216e+06
      51.6012   7.4204e+06
      51.4582  7.74192e+06
      51.3153  8.07731e+06
      51.1723  8.42716e+06
      51.0293  8.79208e+06
      50.8864  9.17273e+06
      50.7434  9.56977e+06
      50.6005  9.98391e+06
      50.4575  1.04159e+07
      50.3146  1.08664e+07
      50.1716  1.13364e+07
      50.0287  1.18266e+07
      49.8857  1.23379e+07
      49.7427  1.28711e+07
      49.5998  1.34273e+07
      49.4568  1.40074e+07
      49.3139  1.46124e+07
      49.1709  1.52434e+07
       49.028  1.59016e+07
       48.885   1.6588e+07
      48.7421  1.73039e+07
      48.5991  1.80505e+07
      48.4561  1.88291e+07
      48.3132  1.96412e+07
      48.1702  2.04881e+07
      48.0273  2.13714e+07
      47.8843  2.22925e+07
      47.7414  2.32531e+07
      47.5984  2.42549e+07
      47.4555  2.52996e+07
      47.3125  2.63891e+07
      47.1695  2.75252e+07
      47.0266    2.871e+07
      46.8836  2.99455e+07
      46.7407  3.12339e+07
      46.5977  3.25774e+07
      46.4548  3.39785e+07
      46.3118  3.54394e+07
      46.1689  3.69628e+07
      46.0259  3.85514e+07
      45.8829  4.02078e+07
        45.74   4.1935e+07
       45.597  4.37361e+07
      45.4541   4.5614e+07
      45.3111  4.75722e+07
      45.1682  4.96139e+07
      45.0252  5.17428e+07
      44.8823  5.39626e+07
      44.7393   5.6277e+07
      44.5964  5.86902e+07
      44.4534  6.12062e+07
      44.3104  6.38296e+07
      44.1675  6.65647e+07
      44.0245  6.94164e+07
      43.8816  7.23895e+07
      43.7386  7.54893e+07
      43.5957  7.87211e+07
      43.4527  8.20905e+07
      43.3098  8.56032e+07
      43.1668  8.92655e+07
      43.0238  9.30835e+07
      42.8809  9.70638e+07
      42.7379  1.01213e+08
       42.595  1.05539e+08
       42.452  1.10049e+08
      42.3091  1.14751e+08
      42.1661  1.19652e+08
      42.0232  1.24761e+08
      41.8802  1.30087e+08
      41.7372  1.35639e+08
      41.5943  1.41427e+08
      41.4513  1.47461e+08
      41.3084   1.5375e+08
      41.1654  1.60306e+08
      41.0225   1.6714e+08
      40.8795  1.74263e+08
      40.7366  1.81688e+08
      40.5936  1.89428e+08
      40.4506  1.97495e+08
      40.3077  2.05905e+08
      40.1647  2.14669e+08
      40.0218  2.23805e+08
      39.8788  2.33328e+08
      39.7359  2.43253e+08
      39.5929  2.53597e+08
        39.45  2.64379e+08
       39.307  2.75617e+08
       39.164  2.87329e+08
      39.0211  2.99536e+08
      38.8781  3.12259e+08
      38.7352  3.25519e+08
      38.5922  3.39338e+08
      38.4493   3.5374e+08
      38.3063   3.6875e+08
      38.1634  3.84393e+08
      38.0204  4.00695e+08
      37.8774  4.17685e+08
      37.7345   4.3539e+08
      37.5915  4.53841e+08
      37.4486  4.73069e+08
      37.3056  4.93107e+08
      37.1627  5.13989e+08
      37.0197  5.35749e+08
      36.8768  5.58424e+08
      36.7338  5.82053e+08
      36.5909  6.06676e+08
      36.4479  6.32334e+08
      36.3049   6.5907e+08
       36.162  6.86929e+08
       36.019  7.15958e+08
      35.8761  7.46206e+08
      35.7331  7.77724e+08
      35.5902  8.10565e+08
      35.4472  8.44784e+08
      35.3043  8.80438e+08
      35.1613  9.17586e+08
      35.0183  9.56293e+08
      34.8754  9.96621e+08
      34.7324  1.03864e+09
      34.5895  1.08242e+09
      34.4465  1.12803e+09
      34.3036  1.17555e+09
      34.1606  1.22506e+09
      34.0177  1.27664e+09
      33.8747  1.33038e+09
      33.7317  1.38636e+09
      33.5888  1.44469e+09
      33.4458  1.50545e+09
      33.3029  1.56875e+09
      33.1599  1.63469e+09
       33.017  1.70339e+09
       32.874  1.77496e+09
      32.7311  1.84951e+09
      32.5881  1.92717e+09
      32.4451  2.00808e+09
      32.3022  2.09235e+09
      32.1592  2.18014e+09
      32.0163  2.27159e+09
      31.8733  2.36684e+09
      31.7304  2.46607e+09
      31.5874  2.56942e+09
      31.4445  2.67707e+09
      31.3015  2.78921e+09
      31.1585  2.90601e+09
      31.0156  3.02767e+09
      30.8726  3.15438e+09
      30.7297  3.28636e+09
      30.5867  3.42383e+09
      30.4438    3.567e+09
      30.3008  3.71612e+09
      30.1579  3.87143e+09
      30.0149  4.03318e+09
      29.8719  4.20164e+09
       29.729   4.3771e+09
       29.586  4.55982e+09
      29.4431  4.75012e+09
      29.3001   4.9483e+09
      29.1572  5.15469e+09
      29.0142  5.36963e+09
      28.8713  5.59347e+09
      28.7283  5.82657e+09
      28.5854  6.06931e+09
      28.4424   6.3221e+09
      28.2994  6.58533e+09
      28.1565  6.85945e+09
      28.0135  7.14489e+09
      27.8706  7.44212e+09
      27.7276  7.75163e+09
      27.5847  8.07392e+09
      27.4417   8.4095e+09
      27.2988  8.75893e+09
      27.1558  9.12277e+09
      27.0128  9.50161e+09
      26.8699  9.89607e+09
      26.7269  1.03068e+10
       26.584  1.07344e+10
       26.441  1.11796e+10
      26.2981  1.16432e+10
      26.1551  1.21258e+10
      26.0122  1.26283e+10
      25.8692  1.31515e+10
      25.7262  1.36962e+10
      25.5833  1.42632e+10
      25.4403  1.48535e+10
      25.2974  1.54681e+10
      25.1544   1.6108e+10
      25.0115   1.6774e+10
      24.8685  1.74675e+10
      24.7256  1.81893e+10
      24.5826  1.89408e+10
      24.4396   1.9723e+10
      24.2967  2.05373e+10
      24.1537   2.1385e+10
      24.0108  2.22674e+10
      23.8678  2.31859e+10
      23.7249   2.4142e+10
      23.5819  2.51372e+10
       23.439   2.6173e+10
       23.296  2.72513e+10
       23.153  2.83736e+10
      23.0101  2.95417e+10
      22.8671  3.07576e+10
      22.7242  3.20231e+10
      22.5812  3.33403e+10
      22.4383  3.47111e+10
      22.2953  3.61379e+10
      22.1524  3.76229e+10
      22.0094  3.91684e+10
      21.8664  4.07768e+10
      21.7235  4.24507e+10
      21.5805  4.41928e+10
      21.4376  4.60058e+10
      21.2946  4.78926e+10
      21.1517  4.98561e+10
      21.0087  5.18994e+10
      20.8658  5.40257e+10
      20.7228  5.62385e+10
      20.5799  5.85411e+10
      20.4369  6.09372e+10
      20.2939  6.34305e+10
       20.151  6.60249e+10
       20.008  6.87246e+10
      19.8651  7.15338e+10
      19.7221  7.44567e+10
      19.5792  7.74981e+10
      19.4362  8.06627e+10
      19.2933  8.39554e+10
      19.1503  8.73813e+10
      19.0073  9.09457e+10
      18.8644  9.46544e+10
      18.7214  9.85129e+10
      18.5785  1.02527e+11
      18.4355  1.06704e+11
      18.2926  1.11049e+11
      18.1496   1.1557e+11
      18.0067  1.20273e+11
      17.8637  1.25166e+11
      17.7207  1.30256e+11
      17.5778  1.35551e+11
      17.4348  1.41059e+11
      17.2919  1.46789e+11
      17.1489   1.5275e+11
       17.006  1.58951e+11
