Temperature = 1419.03K
THERMAL DISTRIBUTIONS:
  E, kcal/mol           W1
      126.284   0.00485533
      126.141    0.0050722
      125.998   0.00529874
      125.855   0.00553537
      125.712   0.00578255
      125.569   0.00604073
      125.426   0.00631042
      125.283   0.00659212
       125.14   0.00688637
      124.997   0.00719373
      124.854   0.00751477
      124.711    0.0078501
      124.568   0.00820037
      124.425   0.00856623
      124.283   0.00894837
       124.14   0.00934752
      123.997   0.00976444
      123.854    0.0101999
      123.711    0.0106547
      123.568    0.0111298
      123.425     0.011626
      123.282    0.0121443
      123.139    0.0126857
      122.996    0.0132511
      122.853    0.0138416
       122.71    0.0144585
      122.567    0.0151027
      122.424    0.0157756
      122.281    0.0164783
      122.138    0.0172124
      121.995     0.017979
      121.852    0.0187797
      121.709     0.019616
      121.566    0.0204894
      121.423    0.0214017
       121.28    0.0223544
      121.138    0.0233495
      120.995    0.0243888
      120.852    0.0254742
      120.709    0.0266078
      120.566    0.0277917
      120.423    0.0290282
       120.28    0.0303195
      120.137    0.0316682
      119.994    0.0330767
      119.851    0.0345477
      119.708     0.036084
      119.565    0.0376884
      119.422     0.039364
      119.279     0.041114
      119.136    0.0429415
      118.993      0.04485
       118.85    0.0468432
      118.707    0.0489248
      118.564    0.0510986
      118.421    0.0533688
      118.278    0.0557396
      118.135    0.0582154
      117.992     0.060801
       117.85    0.0635011
      117.707    0.0663208
      117.564    0.0692655
      117.421    0.0723405
      117.278    0.0755518
      117.135    0.0789052
      116.992    0.0824071
      116.849    0.0860641
      116.706    0.0898829
      116.563    0.0938708
       116.42    0.0980352
      116.277     0.102384
      116.134     0.106925
      115.991     0.111667
      115.848     0.116619
      115.705     0.121789
      115.562     0.127189
      115.419     0.132827
      115.276     0.138715
      115.133     0.144863
       114.99     0.151283
      114.847     0.157986
      114.705     0.164986
      114.562     0.172295
      114.419     0.179927
      114.276     0.187897
      114.133     0.196218
       113.99     0.204907
      113.847      0.21398
      113.704     0.223454
      113.561     0.233346
      113.418     0.243674
      113.275     0.254459
      113.132      0.26572
      112.989     0.277478
      112.846     0.289755
      112.703     0.302574
       112.56     0.315958
      112.417     0.329933
      112.274     0.344524
      112.131     0.359759
      111.988     0.375666
      111.845     0.392275
      111.702     0.409616
      111.559     0.427721
      111.417     0.446625
      111.274     0.466362
      111.131     0.486969
      110.988     0.508484
      110.845     0.530947
      110.702       0.5544
      110.559     0.578886
      110.416     0.604451
      110.273     0.631142
       110.13     0.659009
      109.987     0.688102
      109.844     0.718477
      109.701     0.750188
      109.558     0.783296
      109.415     0.817861
      109.272     0.853947
      109.129     0.891622
      108.986     0.930953
      108.843     0.972016
        108.7      1.01488
      108.557      1.05964
      108.414      1.10636
      108.272      1.15514
      108.129      1.20606
      107.986      1.25922
      107.843      1.31472
        107.7      1.37265
      107.557      1.43314
      107.414      1.49628
      107.271      1.56219
      107.128        1.631
      106.985      1.70284
      106.842      1.77783
      106.699      1.85611
      106.556      1.93783
      106.413      2.02314
       106.27      2.11219
      106.127      2.20515
      105.984      2.30219
      105.841       2.4035
      105.698      2.50924
      105.555      2.61963
      105.412      2.73486
      105.269      2.85514
      105.127       2.9807
      104.984      3.11176
      104.841      3.24857
      104.698      3.39138
      104.555      3.54045
      104.412      3.69606
      104.269      3.85848
      104.126      4.02803
      103.983        4.205
       103.84      4.38972
      103.697      4.58254
      103.554       4.7838
      103.411      4.99388
      103.268      5.21315
      103.125      5.44203
      102.982      5.68093
      102.839      5.93028
      102.696      6.19055
      102.553      6.46221
       102.41      6.74575
      102.267       7.0417
      102.124       7.3506
      101.981      7.67301
      101.839      8.00952
      101.696      8.36075
      101.553      8.72733
       101.41      9.10994
      101.267      9.50927
      101.124      9.92606
      100.981      10.3611
      100.838      10.8151
      100.695      11.2889
      100.552      11.7835
      100.409      12.2996
      100.266      12.8383
      100.123      13.4005
      99.9801      13.9873
      99.8372      14.5997
      99.6942      15.2388
      99.5512      15.9058
      99.4083      16.6019
      99.2653      17.3284
      99.1224      18.0866
      98.9794      18.8779
      98.8365      19.7037
      98.6935      20.5655
      98.5506      21.4649
      98.4076      22.4035
      98.2646       23.383
      98.1217      24.4052
      97.9787       25.472
      97.8358      26.5852
      97.6928       27.747
      97.5499      28.9594
      97.4069      30.2246
       97.264      31.5449
       97.121      32.9227
       96.978      34.3605
      96.8351      35.8609
      96.6921      37.4266
      96.5492      39.0605
      96.4062      40.7655
      96.2633      42.5447
      96.1203      44.4013
      95.9774      46.3386
      95.8344      48.3603
      95.6915      50.4699
      95.5485      52.6712
      95.4055      54.9682
      95.2626      57.3651
      95.1196      59.8662
      94.9767       62.476
      94.8337      65.1992
      94.6908      68.0407
      94.5478      71.0057
      94.4049      74.0995
      94.2619      77.3277
      94.1189      80.6961
       93.976      84.2107
       93.833      87.8779
      93.6901      91.7044
      93.5471      95.6969
      93.4042      99.8627
      93.2612      104.209
      93.1183      108.744
      92.9753      113.476
      92.8323      118.413
      92.6894      123.565
      92.5464      128.939
      92.4035      134.547
      92.2605      140.398
      92.1176      146.502
      91.9746      152.871
      91.8317      159.516
      91.6887      166.449
      91.5457      173.682
      91.4028      181.229
      91.2598      189.102
      91.1169      197.317
      90.9739      205.886
       90.831      214.827
       90.688      224.155
      90.5451      233.887
      90.4021       244.04
      90.2591      254.632
      90.1162      265.682
      89.9732      277.211
      89.8303      289.238
      89.6873      301.785
      89.5444      314.874
      89.4014      328.529
      89.2585      342.775
      89.1155      357.636
      88.9725       373.14
      88.8296      389.313
      88.6866      406.185
      88.5437      423.786
      88.4007      442.146
      88.2578        461.3
      88.1148       481.28
      87.9719      502.124
      87.8289      523.866
       87.686      546.547
       87.543      570.207
         87.4      594.888
      87.2571      620.633
      87.1141      647.488
      86.9712      675.502
      86.8282      704.723
      86.6853      735.205
      86.5423          767
      86.3994      800.165
      86.2564       834.76
      86.1134      870.845
      85.9705      908.485
      85.8275      947.746
      85.6846      988.698
      85.5416      1031.41
      85.3987      1075.97
      85.2557      1122.44
      85.1128      1170.91
      84.9698      1221.47
      84.8268      1274.21
      84.6839      1329.21
      84.5409      1386.58
       84.398      1446.41
       84.255      1508.82
      84.1121      1573.92
      83.9691      1641.81
      83.8262      1712.62
      83.6832      1786.47
      83.5402      1863.49
      83.3973      1943.83
      83.2543      2027.61
      83.1114         2115
      82.9684      2206.14
      82.8255      2301.19
      82.6825      2400.32
      82.5396       2503.7
      82.3966      2611.52
      82.2536      2723.97
      82.1107      2841.25
      81.9677      2963.55
      81.8248       3091.1
      81.6818      3224.12
      81.5389      3362.85
      81.3959      3507.52
       81.253      3658.39
        81.11      3815.73
       80.967      3979.81
      80.8241      4150.92
      80.6811      4329.36
      80.5382      4515.44
      80.3952      4709.49
      80.2523      4911.85
      80.1093      5122.88
      79.9664      5342.93
      79.8234       5572.4
      79.6805       5811.7
      79.5375      6061.23
      79.3945      6321.43
      79.2516      6592.76
      79.1086       6875.7
      78.9657      7170.73
      78.8227      7478.37
      78.6798      7799.17
      78.5368      8133.67
      78.3939      8482.46
      78.2509      8846.16
      78.1079      9225.39
       77.965      9620.82
       77.822      10033.1
      77.6791        10463
      77.5361      10911.3
      77.3932      11378.7
      77.2502        11866
      77.1073      12374.2
      76.9643        12904
      76.8213      13456.4
      76.6784      14032.4
      76.5354      14632.9
      76.3925        15259
      76.2495      15911.8
      76.1066      16592.5
      75.9636      17302.1
      75.8207      18041.9
      75.6777      18813.3
      75.5347      19617.6
      75.3918        20456
      75.2488      21330.2
      75.1059      22241.6
      74.9629      23191.7
        74.82      24182.3
       74.677      25215.1
      74.5341      26291.8
      74.3911      27414.2
      74.2481      28584.4
      74.1052      29804.4
      73.9622      31076.2
      73.8193        32402
      73.6763      33784.2
      73.5334      35225.2
      73.3904      36727.3
      73.2475      38293.3
      73.1045      39925.7
      72.9615      41627.4
      72.8186      43401.4
      72.6756      45250.7
      72.5327      47178.4
      72.3897        49188
      72.2468      51282.8
      72.1038      53466.4
      71.9609      55742.7
      71.8179      58115.4
       71.675      60588.7
       71.532      63166.9
       71.389      65854.3
      71.2461      68655.6
      71.1031      71575.6
      70.9602      74619.2
      70.8172      77791.7
      70.6743      81098.5
      70.5313      84545.3
      70.3884        88138
      70.2454      91882.7
      70.1024      95785.9
      69.9595      99854.2
      69.8165       104095
      69.6736       108514
      69.5306       113121
      69.3877       117922
      69.2447       122926
      69.1018       128142
      68.9588       133578
      68.8158       139243
      68.6729       145148
      68.5299       151302
       68.387       157716
       68.244       164401
      68.1011       171368
      67.9581       178628
      67.8152       186196
      67.6722       194082
      67.5292       202301
      67.3863       210866
      67.2433       219793
      67.1004       229095
      66.9574       238790
      66.8145       248893
      66.6715       259422
      66.5286       270394
      66.3856       281828
      66.2426       293744
      66.0997       306161
      65.9567       319101
      65.8138       332585
      65.6708       346636
      65.5279       361279
      65.3849       376537
       65.242       392437
       65.099       409005
      64.9561       426270
      64.8131       444260
      64.6701       463006
      64.5272       482539
      64.3842       502892
      64.2413       524101
      64.0983       546199
      63.9554       569225
      63.8124       593218
      63.6695       618217
      63.5265       644264
      63.3835       671405
      63.2406       699683
      63.0976       729147
      62.9547       759845
      62.8117       791831
      62.6688       825156
      62.5258       859877
      62.3829       896053
      62.2399       933744
      62.0969       973012
       61.954  1.01392e+06
       61.811  1.05655e+06
      61.6681  1.10096e+06
      61.5251  1.14722e+06
      61.3822  1.19542e+06
      61.2392  1.24564e+06
      61.0963  1.29796e+06
      60.9533  1.35246e+06
      60.8103  1.40924e+06
      60.6674  1.46839e+06
      60.5244  1.53002e+06
      60.3815  1.59421e+06
      60.2385  1.66109e+06
      60.0956  1.73076e+06
      59.9526  1.80334e+06
      59.8097  1.87895e+06
      59.6667  1.95771e+06
      59.5237  2.03976e+06
      59.3808  2.12523e+06
      59.2378  2.21426e+06
      59.0949  2.30701e+06
      58.9519  2.40362e+06
       58.809  2.50426e+06
       58.666  2.60909e+06
      58.5231  2.71829e+06
      58.3801  2.83203e+06
      58.2371  2.95051e+06
      58.0942  3.07393e+06
      57.9512  3.20248e+06
      57.8083  3.33637e+06
      57.6653  3.47584e+06
      57.5224  3.62112e+06
      57.3794  3.77243e+06
      57.2365  3.93003e+06
      57.0935  4.09419e+06
      56.9506  4.26516e+06
      56.8076  4.44325e+06
      56.6646  4.62873e+06
      56.5217  4.82191e+06
      56.3787  5.02311e+06
      56.2358  5.23267e+06
      56.0928  5.45093e+06
      55.9499  5.67824e+06
      55.8069  5.91499e+06
       55.664  6.16155e+06
       55.521  6.41834e+06
       55.378  6.68578e+06
      55.2351   6.9643e+06
      55.0921  7.25437e+06
      54.9492  7.55645e+06
      54.8062  7.87105e+06
      54.6633  8.19868e+06
      54.5203  8.53988e+06
      54.3774   8.8952e+06
      54.2344  9.26523e+06
      54.0914  9.65057e+06
      53.9485  1.00518e+07
      53.8055  1.04697e+07
      53.6626  1.09049e+07
      53.5196   1.1358e+07
      53.3767  1.18299e+07
      53.2337  1.23213e+07
      53.0908   1.2833e+07
      52.9478  1.33658e+07
      52.8048  1.39207e+07
      52.6619  1.44984e+07
      52.5189     1.51e+07
       52.376  1.57264e+07
       52.233  1.63787e+07
      52.0901  1.70578e+07
      51.9471   1.7765e+07
      51.8042  1.85013e+07
      51.6612   1.9268e+07
      51.5182  2.00663e+07
      51.3753  2.08975e+07
      51.2323  2.17629e+07
      51.0894   2.2664e+07
      50.9464  2.36022e+07
      50.8035   2.4579e+07
      50.6605   2.5596e+07
      50.5176  2.66548e+07
      50.3746  2.77573e+07
      50.2316   2.8905e+07
      50.0887     3.01e+07
      49.9457   3.1344e+07
      49.8028  3.26392e+07
      49.6598  3.39877e+07
      49.5169  3.53915e+07
      49.3739   3.6853e+07
       49.231  3.83745e+07
       49.088  3.99584e+07
      48.9451  4.16074e+07
      48.8021   4.3324e+07
      48.6591   4.5111e+07
      48.5162  4.69714e+07
      48.3732   4.8908e+07
      48.2303   5.0924e+07
      48.0873  5.30227e+07
      47.9444  5.52073e+07
      47.8014  5.74814e+07
      47.6585  5.98487e+07
      47.5155  6.23129e+07
      47.3725  6.48779e+07
      47.2296   6.7548e+07
      47.0866  7.03273e+07
      46.9437  7.32202e+07
      46.8007  7.62315e+07
      46.6578  7.93659e+07
      46.5148  8.26284e+07
      46.3719  8.60243e+07
      46.2289  8.95589e+07
      46.0859  9.32378e+07
       45.943   9.7067e+07
         45.8  1.01053e+08
      45.6571  1.05201e+08
      45.5141  1.09518e+08
      45.3712  1.14012e+08
      45.2282  1.18689e+08
      45.0853  1.23556e+08
      44.9423  1.28622e+08
      44.7993  1.33895e+08
      44.6564  1.39382e+08
      44.5134  1.45093e+08
      44.3705  1.51036e+08
      44.2275  1.57221e+08
      44.0846  1.63658e+08
      43.9416  1.70357e+08
      43.7987  1.77329e+08
      43.6557  1.84584e+08
      43.5127  1.92134e+08
      43.3698  1.99991e+08
      43.2268  2.08167e+08
      43.0839  2.16676e+08
      42.9409   2.2553e+08
       42.798  2.34744e+08
       42.655  2.44332e+08
      42.5121  2.54309e+08
      42.3691   2.6469e+08
      42.2262  2.75493e+08
      42.0832  2.86734e+08
      41.9402  2.98431e+08
      41.7973  3.10602e+08
      41.6543  3.23266e+08
      41.5114  3.36444e+08
      41.3684  3.50155e+08
      41.2255  3.64421e+08
      41.0825  3.79265e+08
      40.9396  3.94709e+08
      40.7966  4.10779e+08
      40.6536  4.27498e+08
      40.5107  4.44893e+08
      40.3677  4.62992e+08
      40.2248  4.81823e+08
      40.0818  5.01414e+08
      39.9389  5.21796e+08
      39.7959  5.43002e+08
       39.653  5.65064e+08
        39.51  5.88016e+08
       39.367  6.11894e+08
      39.2241  6.36736e+08
      39.0811   6.6258e+08
      38.9382  6.89465e+08
      38.7952  7.17435e+08
      38.6523  7.46531e+08
      38.5093  7.76799e+08
      38.3664  8.08287e+08
      38.2234  8.41042e+08
      38.0804  8.75116e+08
      37.9375  9.10561e+08
      37.7945  9.47432e+08
      37.6516  9.85786e+08
      37.5086  1.02568e+09
      37.3657  1.06718e+09
      37.2227  1.11035e+09
      37.0798  1.15525e+09
      36.9368  1.20195e+09
      36.7938  1.25053e+09
      36.6509  1.30106e+09
      36.5079  1.35362e+09
       36.365  1.40829e+09
       36.222  1.46514e+09
      36.0791  1.52428e+09
      35.9361  1.58579e+09
      35.7932  1.64976e+09
      35.6502   1.7163e+09
      35.5072   1.7855e+09
      35.3643  1.85747e+09
      35.2213  1.93232e+09
      35.0784  2.01017e+09
      34.9354  2.09113e+09
      34.7925  2.17533e+09
      34.6495  2.26289e+09
      34.5066  2.35395e+09
      34.3636  2.44865e+09
      34.2207  2.54714e+09
      34.0777  2.64955e+09
      33.9347  2.75606e+09
      33.7918  2.86681e+09
      33.6488  2.98199e+09
      33.5059  3.10175e+09
      33.3629   3.2263e+09
        33.22   3.3558e+09
       33.077  3.49047e+09
      32.9341   3.6305e+09
      32.7911  3.77611e+09
      32.6481  3.92751e+09
      32.5052  4.08494e+09
      32.3622  4.24864e+09
      32.2193  4.41884e+09
      32.0763  4.59581e+09
      31.9334  4.77982e+09
      31.7904  4.97114e+09
      31.6475  5.17006e+09
      31.5045  5.37688e+09
      31.3615  5.59191e+09
      31.2186  5.81547e+09
      31.0756  6.04791e+09
      30.9327  6.28957e+09
      30.7897   6.5408e+09
      30.6468    6.802e+09
      30.5038  7.07355e+09
      30.3609  7.35585e+09
      30.2179  7.64933e+09
      30.0749  7.95444e+09
       29.932  8.27161e+09
       29.789  8.60134e+09
      29.6461  8.94411e+09
      29.5031  9.30043e+09
      29.3602  9.67084e+09
      29.2172  1.00559e+10
      29.0743  1.04561e+10
      28.9313  1.08722e+10
      28.7883  1.13047e+10
      28.6454  1.17542e+10
      28.5024  1.22215e+10
      28.3595  1.27072e+10
      28.2165  1.32121e+10
      28.0736  1.37368e+10
      27.9306  1.42823e+10
      27.7877  1.48492e+10
      27.6447  1.54384e+10
      27.5017  1.60509e+10
      27.3588  1.66874e+10
      27.2158   1.7349e+10
      27.0729  1.80366e+10
      26.9299  1.87512e+10
       26.787  1.94939e+10
       26.644  2.02657e+10
      26.5011  2.10679e+10
      26.3581  2.19016e+10
      26.2152   2.2768e+10
      26.0722  2.36683e+10
      25.9292   2.4604e+10
      25.7863  2.55764e+10
      25.6433  2.65868e+10
      25.5004  2.76369e+10
      25.3574  2.87281e+10
      25.2145   2.9862e+10
      25.0715  3.10402e+10
      24.9286  3.22646e+10
      24.7856  3.35368e+10
      24.6426  3.48588e+10
      24.4997  3.62325e+10
      24.3567  3.76598e+10
      24.2138  3.91429e+10
      24.0708  4.06838e+10
      23.9279  4.22849e+10
      23.7849  4.39485e+10
       23.642   4.5677e+10
       23.499  4.74728e+10
       23.356  4.93386e+10
      23.2131  5.12771e+10
      23.0701  5.32911e+10
      22.9272  5.53835e+10
      22.7842  5.75574e+10
      22.6413  5.98158e+10
      22.4983  6.21621e+10
      22.3554  6.45995e+10
      22.2124  6.71317e+10
      22.0694  6.97622e+10
      21.9265  7.24949e+10
      21.7835  7.53337e+10
      21.6406  7.82826e+10
      21.4976  8.13459e+10
      21.3547   8.4528e+10
      21.2117  8.78334e+10
      21.0688  9.12669e+10
      20.9258  9.48334e+10
