Temperature = 1012.95K
THERMAL DISTRIBUTIONS:
  E, kcal/mol           W1
      94.0074  1.49352e-06
      93.8645  1.59057e-06
      93.7215   1.6939e-06
      93.5786  1.80394e-06
      93.4356  1.92112e-06
      93.2927   2.0459e-06
      93.1497  2.17878e-06
      93.0067  2.32027e-06
      92.8638  2.47093e-06
      92.7208  2.63136e-06
      92.5779   2.8022e-06
      92.4349   2.9841e-06
       92.292   3.1778e-06
       92.149  3.38406e-06
      92.0061  3.60368e-06
      91.8631  3.83753e-06
      91.7202  4.08653e-06
      91.5772  4.35167e-06
      91.4342  4.63398e-06
      91.2913  4.93458e-06
      91.1483  5.25465e-06
      91.0054  5.59545e-06
      90.8624  5.95832e-06
      90.7195  6.34469e-06
      90.5765  6.75607e-06
      90.4336  7.19409e-06
      90.2906  7.66046e-06
      90.1476  8.15701e-06
      90.0047  8.68571e-06
      89.8617  9.24861e-06
      89.7188  9.84795e-06
      89.5758  1.04861e-05
      89.4329  1.11655e-05
      89.2899  1.18888e-05
       89.147  1.26589e-05
       89.004  1.34789e-05
       88.861  1.43519e-05
      88.7181  1.52813e-05
      88.5751  1.62708e-05
      88.4322  1.73243e-05
      88.2892  1.84459e-05
      88.1463    1.964e-05
      88.0033  2.09113e-05
      87.8604  2.22647e-05
      87.7174  2.37056e-05
      87.5744  2.52397e-05
      87.4315  2.68728e-05
      87.2885  2.86114e-05
      87.1456  3.04623e-05
      87.0026  3.24328e-05
      86.8597  3.45306e-05
      86.7167  3.67638e-05
      86.5738  3.91412e-05
      86.4308  4.16721e-05
      86.2878  4.43664e-05
      86.1449  4.72346e-05
      86.0019  5.02879e-05
       85.859  5.35383e-05
       85.716  5.69985e-05
      85.5731  6.06819e-05
      85.4301   6.4603e-05
      85.2872   6.8777e-05
      85.1442  7.32203e-05
      85.0012  7.79502e-05
      84.8583  8.29851e-05
      84.7153  8.83447e-05
      84.5724  9.40499e-05
      84.4294  0.000100123
      84.2865  0.000106587
      84.1435  0.000113469
      84.0006  0.000120793
      83.8576   0.00012859
      83.7147   0.00013689
      83.5717  0.000145724
      83.4287  0.000155127
      83.2858  0.000165136
      83.1428  0.000175789
      82.9999  0.000187129
      82.8569  0.000199199
       82.714  0.000212047
       82.571  0.000225721
      82.4281  0.000240276
      82.2851  0.000255768
      82.1421  0.000272257
      81.9992  0.000289808
      81.8562  0.000308488
      81.7133  0.000328369
      81.5703  0.000349531
      81.4274  0.000372053
      81.2844  0.000396024
      81.1415  0.000421537
      80.9985  0.000448691
      80.8555  0.000477591
      80.7126   0.00050835
      80.5696  0.000541086
      80.4267  0.000575926
      80.2837  0.000613006
      80.1408   0.00065247
      79.9978  0.000694469
      79.8549  0.000739167
      79.7119  0.000786738
      79.5689  0.000837364
       79.426  0.000891243
       79.283  0.000948582
      79.1401    0.0010096
      78.9971   0.00107455
      78.8542   0.00114366
      78.7112    0.0012172
      78.5683   0.00129547
      78.4253   0.00137877
      78.2823   0.00146741
      78.1394   0.00156173
      77.9964   0.00166212
      77.8535   0.00176894
      77.7105   0.00188261
      77.5676   0.00200358
      77.4246   0.00213231
      77.2817   0.00226929
      77.1387   0.00241506
      76.9957   0.00257017
      76.8528   0.00273523
      76.7098   0.00291087
      76.5669   0.00309776
      76.4239   0.00329664
       76.281   0.00350826
       76.138   0.00373344
      75.9951   0.00397305
      75.8521   0.00422801
      75.7092    0.0044993
      75.5662   0.00478797
      75.4232   0.00509512
      75.2803   0.00542195
      75.1373   0.00576969
      74.9944    0.0061397
      74.8514    0.0065334
      74.7085    0.0069523
      74.5655     0.007398
      74.4226   0.00787223
      74.2796    0.0083768
      74.1366   0.00891365
      73.9937   0.00948484
      73.8507    0.0100926
      73.7078    0.0107392
      73.5648    0.0114271
      73.4219     0.012159
      73.2789    0.0129378
       73.136    0.0137663
       72.993    0.0146477
        72.85    0.0155855
      72.7071    0.0165833
      72.5641    0.0176447
      72.4212     0.018774
      72.2782    0.0199755
      72.1353    0.0212536
      71.9923    0.0226134
      71.8494    0.0240601
      71.7064    0.0255991
      71.5634    0.0272364
      71.4205    0.0289782
      71.2775    0.0308311
      71.1346    0.0328024
      70.9916    0.0348994
      70.8487    0.0371302
      70.7057    0.0395034
      70.5628    0.0420279
      70.4198    0.0447135
      70.2768    0.0475703
      70.1339    0.0506093
      69.9909    0.0538421
       69.848     0.057281
       69.705    0.0609391
      69.5621    0.0648304
      69.4191    0.0689697
      69.2762    0.0733727
      69.1332    0.0780563
      68.9903    0.0830382
      68.8473    0.0883375
      68.7043    0.0939743
      68.5614    0.0999701
      68.4184     0.106348
      68.2755     0.113131
      68.1325     0.120347
      67.9896     0.128022
      67.8466     0.136185
      67.7037     0.144868
      67.5607     0.154103
      67.4177     0.163926
      67.2748     0.174374
      67.1318     0.185486
      66.9889     0.197305
      66.8459     0.209875
       66.703     0.223245
        66.56     0.237465
      66.4171     0.252589
      66.2741     0.268674
      66.1311     0.285781
      65.9882     0.303975
      65.8452     0.323325
      65.7023     0.343905
      65.5593     0.365792
      65.4164     0.389068
      65.2734     0.413823
      65.1305      0.44015
      64.9875     0.468148
      64.8445     0.497924
      64.7016     0.529589
      64.5586     0.563264
      64.4157     0.599076
      64.2727      0.63716
      64.1298      0.67766
      63.9868     0.720729
      63.8439      0.76653
      63.7009     0.815234
      63.5579     0.867028
       63.415     0.922104
       63.272     0.980672
      63.1291      1.04295
      62.9861      1.10918
      62.8432       1.1796
      62.7002      1.25449
      62.5573      1.33412
      62.4143      1.41879
      62.2713      1.50883
      62.1284      1.60456
      61.9854      1.70636
      61.8425      1.81461
      61.6995       1.9297
      61.5566      2.05208
      61.4136       2.1822
      61.2707      2.32056
      61.1277      2.46767
      60.9848      2.62409
      60.8418       2.7904
      60.6988      2.96722
      60.5559      3.15523
      60.4129      3.35513
        60.27      3.56766
       60.127      3.79362
      59.9841      4.03387
      59.8411      4.28929
      59.6982      4.56085
      59.5552      4.84957
      59.4122      5.15653
      59.2693      5.48287
      59.1263      5.82982
      58.9834      6.19867
      58.8404      6.59081
      58.6975       7.0077
      58.5545       7.4509
      58.4116      7.92207
      58.2686      8.42297
      58.1256      8.95546
      57.9827      9.52155
      57.8397      10.1233
      57.6968      10.7631
      57.5538      11.4431
      57.4109      12.1661
      57.2679      12.9346
       57.125      13.7516
       56.982        14.62
       56.839      15.5431
      56.6961      16.5244
      56.5531      17.5675
      56.4102      18.6764
      56.2672       19.855
      56.1243      21.1078
      55.9813      22.4395
      55.8384      23.8551
      55.6954      25.3597
      55.5524       26.959
      55.4095       28.659
      55.2665      30.4658
      55.1236      32.3864
      54.9806      34.4277
      54.8377      36.5973
      54.6947      38.9034
      54.5518      41.3545
      54.4088      43.9596
      54.2658      46.7284
      54.1229      49.6712
      53.9799      52.7989
       53.837      56.1231
       53.694       59.656
      53.5511      63.4109
      53.4081      67.4015
      53.2652      71.6426
      53.1222      76.1499
      52.9793      80.9402
      52.8363       86.031
      52.6933      91.4413
      52.5504       97.191
      52.4074      103.301
      52.2645      109.795
      52.1215      116.696
      51.9786      124.029
      51.8356      131.822
      51.6927      140.104
      51.5497      148.904
      51.4067      158.256
      51.2638      168.194
      51.1208      178.755
      50.9779      189.977
      50.8349      201.901
       50.692      214.572
       50.549      228.037
      50.4061      242.344
      50.2631      257.547
      50.1201      273.701
      49.9772      290.865
      49.8342      309.104
      49.6913      328.483
      49.5483      349.074
      49.4054      370.952
      49.2624      394.199
      49.1195      418.898
      48.9765      445.141
      48.8335      473.023
      48.6906      502.648
      48.5476      534.124
      48.4047      567.565
      48.2617      603.095
      48.1188      640.843
      47.9758      680.947
      47.8329      723.555
      47.6899      768.822
      47.5469      816.913
       47.404      868.005
       47.261      922.284
      47.1181      979.949
      46.9751      1041.21
      46.8322      1106.29
      46.6892      1175.43
      46.5463      1248.87
      46.4033      1326.89
      46.2604      1409.78
      46.1174      1497.83
      45.9744      1591.36
      45.8315      1690.72
      45.6885      1796.26
      45.5456      1908.38
      45.4026      2027.47
      45.2597      2153.98
      45.1167      2288.36
      44.9738       2431.1
      44.8308      2582.72
      44.6878      2743.77
      44.5449      2914.83
      44.4019      3096.53
       44.259      3289.53
       44.116      3494.52
      43.9731      3712.26
      43.8301      3943.52
      43.6872      4189.14
      43.5442      4450.03
      43.4012      4727.12
      43.2583      5021.41
      43.1153      5333.97
      42.9724      5665.94
      42.8294       6018.5
      42.6865      6392.95
      42.5435      6790.63
      42.4006      7212.97
      42.2576      7661.51
      42.1146      8137.86
      41.9717      8643.74
      41.8287      9180.98
      41.6858      9751.52
      41.5428      10357.4
      41.3999      11000.9
      41.2569      11684.1
       41.114      12409.8
       40.971      13180.3
       40.828      13998.5
      40.6851      14867.4
      40.5421      15790.1
      40.3992      16769.9
      40.2562      17810.3
      40.1133        18915
      39.9703      20088.1
      39.8274      21333.7
      39.6844      22656.4
      39.5414      24060.7
      39.3985      25551.9
      39.2555      27135.3
      39.1126      28816.4
      38.9696      30601.4
      38.8267      32496.6
      38.6837      34508.9
      38.5408      36645.4
      38.3978      38913.8
      38.2549      41322.1
      38.1119      43879.1
      37.9689      46593.8
       37.826        49476
       37.683      52535.9
      37.5401      55784.5
      37.3971      59233.4
      37.2542      62894.8
      37.1112      66781.9
      36.9683      70908.4
      36.8253      75289.2
      36.6823      79939.8
      36.5394      84876.8
      36.3964      90117.7
      36.2535      95681.3
      36.1105       101587
      35.9676       107857
      35.8246       114512
      35.6817       121576
      35.5387       129075
      35.3957       137035
      35.2528       145484
      35.1098       154453
      34.9669       163973
      34.8239       174078
       34.681       184803
       34.538       196187
      34.3951       208271
      34.2521       221096
      34.1091       234708
      33.9662       249156
      33.8232       264490
      33.6803       280765
      33.5373       298038
      33.3944       316371
      33.2514       335827
      33.1085       356476
      32.9655       378391
      32.8225       401648
      32.6796       426330
      32.5366       452524
      32.3937       480322
      32.2507       509822
      32.1078       541128
      31.9648       574350
      31.8219       609605
      31.6789       647016
      31.5359       686716
       31.393       728844
        31.25       773547
      31.1071       820984
      30.9641       871319
      30.8212       924730
      30.6782       981404
      30.5353  1.04154e+06
      30.3923  1.10535e+06
      30.2494  1.17305e+06
      30.1064  1.24489e+06
      29.9634  1.32111e+06
      29.8205  1.40198e+06
      29.6775  1.48778e+06
      29.5346  1.57882e+06
      29.3916  1.67541e+06
      29.2487  1.77789e+06
      29.1057  1.88661e+06
      28.9628  2.00196e+06
      28.8198  2.12434e+06
      28.6768  2.25418e+06
      28.5339  2.39192e+06
      28.3909  2.53805e+06
       28.248  2.69307e+06
       28.105  2.85753e+06
      27.9621  3.03199e+06
      27.8191  3.21708e+06
      27.6762  3.41341e+06
      27.5332  3.62169e+06
      27.3902  3.84264e+06
      27.2473  4.07701e+06
      27.1043  4.32563e+06
      26.9614  4.58935e+06
      26.8184  4.86909e+06
      26.6755  5.16582e+06
      26.5325  5.48058e+06
      26.3896  5.81444e+06
      26.2466  6.16856e+06
      26.1036  6.54417e+06
      25.9607  6.94257e+06
      25.8177  7.36514e+06
      25.6748  7.81333e+06
      25.5318  8.28869e+06
      25.3889  8.79287e+06
      25.2459   9.3276e+06
       25.103  9.89473e+06
        24.96  1.04962e+07
       24.817  1.11341e+07
      24.6741  1.18107e+07
      24.5311  1.25282e+07
      24.3882  1.32891e+07
      24.2452   1.4096e+07
      24.1023  1.49518e+07
      23.9593  1.58593e+07
      23.8164  1.68217e+07
      23.6734  1.78423e+07
      23.5305  1.89246e+07
      23.3875  2.00722e+07
      23.2445  2.12892e+07
      23.1016  2.25797e+07
      22.9586  2.39481e+07
      22.8157  2.53992e+07
      22.6727  2.69378e+07
      22.5298  2.85692e+07
      22.3868  3.02991e+07
      22.2439  3.21333e+07
      22.1009  3.40781e+07
      21.9579  3.61402e+07
       21.815  3.83266e+07
       21.672  4.06447e+07
      21.5291  4.31024e+07
      21.3861  4.57082e+07
      21.2432  4.84708e+07
      21.1002  5.13998e+07
      20.9573  5.45051e+07
      20.8143  5.77972e+07
      20.6713  6.12874e+07
      20.5284  6.49875e+07
      20.3854  6.89101e+07
      20.2425  7.30684e+07
      20.0995  7.74767e+07
      19.9566  8.21499e+07
      19.8136  8.71038e+07
      19.6707  9.23552e+07
      19.5277  9.79219e+07
      19.3847  1.03823e+08
      19.2418  1.10078e+08
      19.0988  1.16708e+08
      18.9559  1.23736e+08
      18.8129  1.31186e+08
        18.67  1.39082e+08
       18.527  1.47451e+08
      18.3841  1.56322e+08
      18.2411  1.65724e+08
      18.0981   1.7569e+08
      17.9552  1.86252e+08
      17.8122  1.97446e+08
      17.6693  2.09311e+08
      17.5263  2.21885e+08
      17.3834  2.35212e+08
      17.2404  2.49336e+08
      17.0975  2.64304e+08
      16.9545  2.80166e+08
      16.8115  2.96977e+08
      16.6686  3.14792e+08
      16.5256  3.33671e+08
      16.3827  3.53677e+08
      16.2397  3.74878e+08
      16.0968  3.97344e+08
      15.9538   4.2115e+08
      15.8109  4.46376e+08
      15.6679  4.73107e+08
       15.525  5.01432e+08
       15.382  5.31444e+08
       15.239  5.63246e+08
      15.0961  5.96941e+08
      14.9531  6.32644e+08
      14.8102  6.70472e+08
      14.6672  7.10552e+08
      14.5243  7.53017e+08
      14.3813  7.98009e+08
      14.2384  8.45677e+08
      14.0954  8.96179e+08
      13.9524  9.49684e+08
      13.8095  1.00637e+09
      13.6665  1.06642e+09
      13.5236  1.13004e+09
      13.3806  1.19744e+09
      13.2377  1.26883e+09
      13.0947  1.34447e+09
      12.9518  1.42459e+09
      12.8088  1.50947e+09
      12.6658  1.59938e+09
      12.5229  1.69462e+09
      12.3799   1.7955e+09
       12.237  1.90236e+09
       12.094  2.01555e+09
      11.9511  2.13545e+09
      11.8081  2.26244e+09
      11.6652  2.39695e+09
      11.5222  2.53942e+09
      11.3792  2.69031e+09
      11.2363  2.85013e+09
      11.0933   3.0194e+09
      10.9504  3.19867e+09
      10.8074  3.38853e+09
      10.6645  3.58961e+09
      10.5215  3.80256e+09
      10.3786  4.02808e+09
      10.2356  4.26692e+09
      10.0926  4.51985e+09
      9.94969  4.78769e+09
      9.80674  5.07133e+09
      9.66378  5.37169e+09
      9.52083  5.68975e+09
      9.37787  6.02655e+09
      9.23492  6.38319e+09
      9.09196  6.76083e+09
        8.949  7.16069e+09
      8.80605  7.58409e+09
      8.66309  8.03239e+09
      8.52014  8.50706e+09
      8.37718  9.00964e+09
      8.23423  9.54176e+09
      8.09127  1.01051e+10
      7.94832  1.07016e+10
      7.80536  1.13331e+10
      7.66241  1.20017e+10
      7.51945  1.27095e+10
       7.3765  1.34589e+10
      7.23354  1.42522e+10
      7.09059   1.5092e+10
      6.94763   1.5981e+10
      6.80467  1.69221e+10
      6.66172  1.79184e+10
      6.51876   1.8973e+10
      6.37581  2.00894e+10
      6.23285  2.12711e+10
       6.0899  2.25219e+10
      5.94694  2.38459e+10
      5.80399  2.52473e+10
      5.66103  2.67306e+10
      5.51808  2.83006e+10
      5.37512  2.99624e+10
      5.23217  3.17211e+10
      5.08921  3.35826e+10
      4.94626  3.55527e+10
       4.8033  3.76377e+10
      4.66034  3.98443e+10
      4.51739  4.21796e+10
      4.37443   4.4651e+10
      4.23148  4.72664e+10
      4.08852  5.00342e+10
      3.94557  5.29631e+10
      3.80261  5.60625e+10
      3.65966  5.93422e+10
       3.5167  6.28128e+10
      3.37375  6.64852e+10
      3.23079  7.03711e+10
      3.08784  7.44828e+10
      2.94488  7.88333e+10
      2.80192  8.34366e+10
      2.65897  8.83071e+10
      2.51601  9.34602e+10
      2.37306  9.89124e+10
       2.2301  1.04681e+11
      2.08715  1.10784e+11
      1.94419   1.1724e+11
      1.80124  1.24071e+11
      1.65828  1.31297e+11
      1.51533  1.38942e+11
      1.37237  1.47029e+11
      1.22942  1.55585e+11
      1.08646  1.64635e+11
     0.943505  1.74208e+11
      0.80055  1.84335e+11
     0.657595  1.95047e+11
     0.514639  2.06377e+11
     0.371684  2.18362e+11
     0.228729  2.31039e+11
    0.0857732  2.44447e+11
   -0.0571821  2.58628e+11
    -0.200137  2.73627e+11
    -0.343093  2.89491e+11
    -0.486048  3.06269e+11
    -0.629004  3.24013e+11
    -0.771959  3.42779e+11
    -0.914914  3.62625e+11
     -1.05787  3.83612e+11
     -1.20082  4.05807e+11
     -1.34378  4.29278e+11
     -1.48674  4.54098e+11
     -1.62969  4.80344e+11
     -1.77265  5.08097e+11
      -1.9156  5.37444e+11
     -2.05856  5.68475e+11
     -2.20151  6.01287e+11
     -2.34447   6.3598e+11
     -2.48742  6.72662e+11
     -2.63038  7.11446e+11
     -2.77333  7.52452e+11
     -2.91629  7.95806e+11
     -3.05924  8.41642e+11
      -3.2022    8.901e+11
     -3.34516  9.41331e+11
     -3.48811   9.9549e+11
     -3.63107  1.05275e+12
     -3.77402  1.11327e+12
     -3.91698  1.17725e+12
     -4.05993  1.24489e+12
     -4.20289  1.31639e+12
     -4.34584  1.39196e+12
      -4.4888  1.47184e+12
     -4.63175  1.55628e+12
     -4.77471  1.64553e+12
     -4.91766  1.73986e+12
     -5.06062  1.83956e+12
     -5.20357  1.94493e+12
     -5.34653   2.0563e+12
     -5.48949  2.17401e+12
     -5.63244   2.2984e+12
      -5.7754  2.42986e+12
     -5.91835  2.56879e+12
     -6.06131  2.71561e+12
     -6.20426  2.87076e+12
     -6.34722  3.03471e+12
     -6.49017  3.20796e+12
     -6.63313  3.39103e+12
     -6.77608  3.58448e+12
     -6.91904  3.78888e+12
     -7.06199  4.00485e+12
     -7.20495  4.23305e+12
      -7.3479  4.47415e+12
     -7.49086  4.72889e+12
     -7.63382  4.99803e+12
     -7.77677  5.28237e+12
     -7.91973  5.58277e+12
     -8.06268  5.90014e+12
     -8.20564   6.2354e+12
     -8.34859  6.58958e+12
     -8.49155  6.96372e+12
      -8.6345  7.35894e+12
     -8.77746  7.77643e+12
     -8.92041  8.21743e+12
     -9.06337  8.68325e+12
     -9.20632  9.17527e+12
     -9.34928  9.69497e+12
     -9.49224  1.02439e+13
     -9.63519  1.08236e+13
     -9.77815  1.14359e+13
      -9.9211  1.20826e+13
     -10.0641  1.27655e+13
      -10.207  1.34868e+13
       -10.35  1.42485e+13
     -10.4929  1.50529e+13
     -10.6359  1.59023e+13
     -10.7788  1.67993e+13
     -10.9218  1.77465e+13
     -11.0647  1.87467e+13
     -11.2077  1.98029e+13
     -11.3507   2.0918e+13
