Temperature = 1663.18K
THERMAL DISTRIBUTIONS:
  E, kcal/mol           W1
      145.692     0.116583
      145.549     0.120949
      145.406     0.125479
      145.263     0.130178
       145.12     0.135053
      144.977      0.14011
      144.834     0.145355
      144.691     0.150796
      144.548     0.156441
      144.405     0.162296
      144.262      0.16837
      144.119      0.17467
      143.976     0.181205
      143.833     0.187985
       143.69     0.195017
      143.547     0.202312
      143.404     0.209878
      143.261     0.217727
      143.118     0.225869
      142.975     0.234314
      142.832     0.243074
      142.689     0.252161
      142.546     0.261587
      142.404     0.271363
      142.261     0.281505
      142.118     0.292024
      141.975     0.302935
      141.832     0.314253
      141.689     0.325992
      141.546     0.338169
      141.403     0.350799
       141.26       0.3639
      141.117     0.377488
      140.974     0.391583
      140.831     0.406202
      140.688     0.421365
      140.545     0.437093
      140.402     0.453407
      140.259     0.470327
      140.116     0.487877
      139.973      0.50608
       139.83     0.524961
      139.687     0.544544
      139.544     0.564855
      139.401     0.585922
      139.259     0.607772
      139.116     0.630434
      138.973      0.65394
       138.83     0.678319
      138.687     0.703604
      138.544     0.729829
      138.401     0.757029
      138.258      0.78524
      138.115     0.814499
      137.972     0.844845
      137.829     0.876318
      137.686      0.90896
      137.543     0.942815
        137.4     0.977927
      137.257      1.01434
      137.114      1.05211
      136.971      1.09128
      136.828       1.1319
      136.685      1.17404
      136.542      1.21773
      136.399      1.26305
      136.256      1.31005
      136.114      1.35879
      135.971      1.40934
      135.828      1.46177
      135.685      1.51614
      135.542      1.57252
      135.399        1.631
      135.256      1.69165
      135.113      1.75454
       134.97      1.81976
      134.827      1.88741
      134.684      1.95755
      134.541       2.0303
      134.398      2.10575
      134.255      2.18399
      134.112      2.26512
      133.969      2.34927
      133.826      2.43653
      133.683      2.52702
       133.54      2.62086
      133.397      2.71817
      133.254      2.81909
      133.111      2.92374
      132.968      3.03227
      132.826      3.14481
      132.683      3.26152
       132.54      3.38254
      132.397      3.50805
      132.254      3.63819
      132.111      3.77315
      131.968       3.9131
      131.825      4.05822
      131.682      4.20871
      131.539      4.36476
      131.396      4.52658
      131.253      4.69438
       131.11      4.86839
      130.967      5.04882
      130.824      5.23592
      130.681      5.42993
      130.538      5.63111
      130.395      5.83972
      130.252      6.05603
      130.109      6.28033
      129.966      6.51291
      129.823      6.75408
      129.681      7.00415
      129.538      7.26345
      129.395      7.53232
      129.252      7.81111
      129.109      8.10019
      128.966      8.39993
      128.823      8.71073
       128.68      9.03299
      128.537      9.36714
      128.394      9.71361
      128.251      10.0729
      128.108      10.4453
      127.965      10.8316
      127.822       11.232
      127.679      11.6472
      127.536      12.0777
      127.393      12.5241
       127.25      12.9869
      127.107      13.4668
      126.964      13.9643
      126.821      14.4802
      126.678       15.015
      126.535      15.5696
      126.393      16.1446
       126.25      16.7407
      126.107      17.3588
      125.964      17.9996
      125.821       18.664
      125.678      19.3528
      125.535       20.067
      125.392      20.8074
      125.249      21.5751
      125.106       22.371
      124.963      23.1962
       124.82      24.0517
      124.677      24.9387
      124.534      25.8582
      124.391      26.8116
      124.248         27.8
      124.105      28.8247
      123.962       29.887
      123.819      30.9884
      123.676      32.1303
      123.533       33.314
       123.39      34.5413
      123.248      35.8136
      123.105      37.1325
      122.962         38.5
      122.819      39.9176
      122.676      41.3872
      122.533      42.9107
       122.39      44.4902
      122.247      46.1276
      122.104       47.825
      121.961      49.5847
      121.818      51.4089
      121.675      53.3001
      121.532      55.2605
      121.389      57.2928
      121.246      59.3996
      121.103      61.5836
       120.96      63.8476
      120.817      66.1946
      120.674      68.6276
      120.531      71.1497
      120.388      73.7641
      120.245      76.4743
      120.103      79.2837
       119.96       82.196
      119.817      85.2149
      119.674      88.3442
      119.531      91.5881
      119.388      94.9507
      119.245      98.4363
      119.102      102.049
      118.959      105.795
      118.816      109.677
      118.673      113.701
       118.53      117.873
      118.387      122.197
      118.244      126.678
      118.101      131.324
      117.958       136.14
      117.815      141.131
      117.672      146.305
      117.529      151.668
      117.386      157.227
      117.243      162.988
        117.1      168.961
      116.957      175.151
      116.815      181.567
      116.672      188.217
      116.529       195.11
      116.386      202.255
      116.243       209.66
        116.1      217.336
      115.957      225.291
      115.814      233.537
      115.671      242.083
      115.528      250.941
      115.385      260.122
      115.242      269.638
      115.099        279.5
      114.956      289.722
      114.813      300.317
       114.67      311.297
      114.527      322.677
      114.384      334.472
      114.241      346.697
      114.098      359.366
      113.955      372.497
      113.812      386.106
       113.67      400.211
      113.527      414.828
      113.384      429.978
      113.241      445.679
      113.098      461.951
      112.955      478.815
      112.812      496.292
      112.669      514.405
      112.526      533.176
      112.383       552.63
       112.24      572.791
      112.097      593.685
      111.954      615.338
      111.811      637.778
      111.668      661.034
      111.525      685.134
      111.382      710.109
      111.239      735.991
      111.096      762.813
      110.953      790.609
       110.81      819.414
      110.667      849.265
      110.524      880.198
      110.382      912.254
      110.239      945.474
      110.096      979.898
      109.953      1015.57
       109.81      1052.54
      109.667      1090.84
      109.524      1130.54
      109.381      1171.67
      109.238       1214.3
      109.095      1258.47
      108.952      1304.24
      108.809      1351.67
      108.666      1400.82
      108.523      1451.75
       108.38      1504.52
      108.237       1559.2
      108.094      1615.86
      107.951      1674.57
      107.808      1735.41
      107.665      1798.45
      107.522      1863.77
      107.379      1931.46
      107.237      2001.59
      107.094      2074.26
      106.951      2149.56
      106.808      2227.58
      106.665      2308.42
      106.522      2392.18
      106.379      2478.97
      106.236      2568.89
      106.093      2662.07
       105.95      2758.61
      105.807      2858.64
      105.664      2962.28
      105.521      3069.66
      105.378      3180.92
      105.235      3296.19
      105.092      3415.63
      104.949      3539.38
      104.806      3667.59
      104.663      3800.43
       104.52      3938.06
      104.377      4080.65
      104.234      4228.39
      104.092      4381.45
      103.949      4540.03
      103.806      4704.33
      103.663      4874.55
       103.52       5050.9
      103.377      5233.61
      103.234       5422.9
      103.091         5619
      102.948      5822.17
      102.805      6032.66
      102.662      6250.72
      102.519      6476.63
      102.376      6710.68
      102.233      6953.14
       102.09      7204.33
      101.947      7464.56
      101.804      7734.15
      101.661      8013.43
      101.518      8302.76
      101.375      8602.48
      101.232      8912.99
      101.089      9234.65
      100.946      9567.87
      100.804      9913.07
      100.661      10270.7
      100.518      10641.1
      100.375      11024.9
      100.232      11422.4
      100.089      11834.2
      99.9458      12260.8
      99.8028      12702.7
      99.6599      13160.4
      99.5169      13634.6
       99.374      14125.8
       99.231      14634.6
      99.0881      15161.6
      98.9451      15707.6
      98.8022      16273.1
      98.6592      16858.9
      98.5162      17465.7
      98.3733      18094.3
      98.2303      18745.3
      98.0874      19419.7
      97.9444      20118.3
      97.8015      20841.8
      97.6585      21591.3
      97.5156      22367.6
      97.3726      23171.7
      97.2296      24004.6
      97.0867      24867.3
      96.9437      25760.8
      96.8008      26686.4
      96.6578        27645
      96.5149      28637.9
      96.3719      29666.3
       96.229      30731.4
       96.086      31834.7
      95.9431      32977.4
      95.8001      34160.9
      95.6571      35386.7
      95.5142      36656.2
      95.3712      37971.2
      95.2283      39333.1
      95.0853      40743.6
      94.9424      42204.4
      94.7994      43717.4
      94.6565      45284.4
      94.5135      46907.3
      94.3705      48588.1
      94.2276      50328.9
      94.0846      52131.7
      93.9417      53998.8
      93.7987      55932.5
      93.6558      57935.2
      93.5128      60009.1
      93.3699        62157
      93.2269      64381.5
      93.0839      66685.1
       92.941      69070.8
       92.798      71541.5
      92.6551      74100.1
      92.5121      76749.8
      92.3692      79493.9
      92.2262      82335.5
      92.0833      85278.3
      91.9403      88325.8
      91.7973      91481.6
      91.6544      94749.7
      91.5114        98134
      91.3685       101639
      91.2255       105268
      91.0826       109026
      90.9396       112918
      90.7967       116947
      90.6537       121121
      90.5107       125442
      90.3678       129917
      90.2248       134550
      90.0819       139348
      89.9389       144316
       89.796       149461
       89.653       154788
      89.5101       160304
      89.3671       166016
      89.2242       171930
      89.0812       178054
      88.9382       184395
      88.7953       190961
      88.6523       197759
      88.5094       204798
      88.3664       212087
      88.2235       219633
      88.0805       227447
      87.9376       235538
      87.7946       243915
      87.6516       252588
      87.5087       261568
      87.3657       270866
      87.2228       280493
      87.0798       290460
      86.9369       300779
      86.7939       311464
       86.651       322526
       86.508       333979
       86.365       345837
      86.2221       358113
      86.0791       370823
      85.9362       383983
      85.7932       397606
      85.6503       411711
      85.5073       426313
      85.3644       441431
      85.2214       457082
      85.0784       473285
      84.9355       490060
      84.7925       507426
      84.6496       525404
      84.5066       544016
      84.3637       563284
      84.2207       583231
      84.0778       603881
      83.9348       625258
      83.7918       647388
      83.6489       670297
      83.5059       694012
       83.363       718563
        83.22       743977
      83.0771       770285
      82.9341       797519
      82.7912       825711
      82.6482       854894
      82.5052       885103
      82.3623       916374
      82.2193       948744
      82.0764       982251
      81.9334  1.01694e+06
      81.7905  1.05284e+06
      81.6475     1.09e+06
      81.5046  1.12847e+06
      81.3616  1.16829e+06
      81.2187  1.20951e+06
      81.0757  1.25217e+06
      80.9327  1.29633e+06
      80.7898  1.34204e+06
      80.6468  1.38935e+06
      80.5039  1.43832e+06
      80.3609  1.48901e+06
       80.218  1.54147e+06
       80.075  1.59577e+06
      79.9321  1.65198e+06
      79.7891  1.71015e+06
      79.6461  1.77036e+06
      79.5032  1.83268e+06
      79.3602  1.89718e+06
      79.2173  1.96394e+06
      79.0743  2.03304e+06
      78.9314  2.10455e+06
      78.7884  2.17856e+06
      78.6455  2.25517e+06
      78.5025  2.33445e+06
      78.3595   2.4165e+06
      78.2166  2.50142e+06
      78.0736  2.58931e+06
      77.9307  2.68027e+06
      77.7877  2.77441e+06
      77.6448  2.87184e+06
      77.5018  2.97267e+06
      77.3589  3.07701e+06
      77.2159  3.18501e+06
      77.0729  3.29676e+06
        76.93  3.41242e+06
       76.787  3.53212e+06
      76.6441  3.65598e+06
      76.5011  3.78417e+06
      76.3582  3.91683e+06
      76.2152  4.05411e+06
      76.0723  4.19617e+06
      75.9293  4.34319e+06
      75.7863  4.49532e+06
      75.6434  4.65276e+06
      75.5004  4.81567e+06
      75.3575  4.98426e+06
      75.2145  5.15872e+06
      75.0716  5.33925e+06
      74.9286  5.52605e+06
      74.7857  5.71936e+06
      74.6427  5.91939e+06
      74.4997  6.12637e+06
      74.3568  6.34055e+06
      74.2138  6.56217e+06
      74.0709   6.7915e+06
      73.9279  7.02879e+06
       73.785  7.27432e+06
       73.642  7.52839e+06
      73.4991  7.79127e+06
      73.3561  8.06327e+06
      73.2132  8.34472e+06
      73.0702  8.63593e+06
      72.9272  8.93725e+06
      72.7843  9.24901e+06
      72.6413  9.57159e+06
      72.4984  9.90535e+06
      72.3554  1.02507e+07
      72.2125   1.0608e+07
      72.0695  1.09776e+07
      71.9266  1.13601e+07
      71.7836  1.17559e+07
      71.6406  1.21653e+07
      71.4977  1.25889e+07
      71.3547  1.30271e+07
      71.2118  1.34806e+07
      71.0688  1.39497e+07
      70.9259   1.4435e+07
      70.7829  1.49371e+07
        70.64  1.54566e+07
       70.497   1.5994e+07
       70.354    1.655e+07
      70.2111  1.71253e+07
      70.0681  1.77203e+07
      69.9252   1.8336e+07
      69.7822  1.89729e+07
      69.6393  1.96317e+07
      69.4963  2.03134e+07
      69.3534  2.10185e+07
      69.2104  2.17479e+07
      69.0674  2.25026e+07
      68.9245  2.32832e+07
      68.7815  2.40907e+07
      68.6386  2.49261e+07
      68.4956  2.57903e+07
      68.3527  2.66842e+07
      68.2097  2.76089e+07
      68.0668  2.85655e+07
      67.9238   2.9555e+07
      67.7808  3.05785e+07
      67.6379  3.16373e+07
      67.4949  3.27325e+07
       67.352  3.38654e+07
       67.209  3.50372e+07
      67.0661  3.62493e+07
      66.9231  3.75031e+07
      66.7802  3.87999e+07
      66.6372  4.01413e+07
      66.4943  4.15288e+07
      66.3513   4.2964e+07
      66.2083  4.44484e+07
      66.0654  4.59837e+07
      65.9224  4.75718e+07
      65.7795  4.92143e+07
      65.6365  5.09132e+07
      65.4936  5.26703e+07
      65.3506  5.44877e+07
      65.2077  5.63674e+07
      65.0647  5.83115e+07
      64.9217  6.03222e+07
      64.7788  6.24018e+07
      64.6358  6.45525e+07
      64.4929   6.6777e+07
      64.3499  6.90775e+07
       64.207  7.14568e+07
       64.064  7.39175e+07
      63.9211  7.64623e+07
      63.7781  7.90942e+07
      63.6351  8.18161e+07
      63.4922   8.4631e+07
      63.3492   8.7542e+07
      63.2063  9.05526e+07
      63.0633  9.36659e+07
      62.9204  9.68856e+07
      62.7774  1.00215e+08
      62.6345  1.03658e+08
      62.4915  1.07219e+08
      62.3485  1.10901e+08
      62.2056  1.14709e+08
      62.0626  1.18647e+08
      61.9197  1.22719e+08
      61.7767  1.26929e+08
      61.6338  1.31283e+08
      61.4908  1.35786e+08
      61.3479  1.40442e+08
      61.2049  1.45256e+08
      61.0619  1.50234e+08
       60.919  1.55381e+08
       60.776  1.60704e+08
      60.6331  1.66208e+08
      60.4901  1.71899e+08
      60.3472  1.77783e+08
      60.2042  1.83868e+08
      60.0613  1.90159e+08
      59.9183  1.96664e+08
      59.7753  2.03389e+08
      59.6324  2.10343e+08
      59.4894  2.17534e+08
      59.3465  2.24968e+08
      59.2035  2.32654e+08
      59.0606  2.40602e+08
      58.9176  2.48818e+08
      58.7747  2.57314e+08
      58.6317  2.66097e+08
      58.4888  2.75178e+08
      58.3458  2.84566e+08
      58.2028  2.94273e+08
      58.0599  3.04308e+08
      57.9169  3.14682e+08
       57.774  3.25408e+08
       57.631  3.36497e+08
      57.4881  3.47961e+08
      57.3451  3.59813e+08
      57.2022  3.72065e+08
      57.0592  3.84731e+08
      56.9162  3.97826e+08
      56.7733  4.11362e+08
      56.6303  4.25356e+08
      56.4874  4.39823e+08
      56.3444  4.54777e+08
      56.2015  4.70237e+08
      56.0585  4.86218e+08
      55.9156  5.02737e+08
      55.7726  5.19814e+08
      55.6296  5.37467e+08
      55.4867  5.55714e+08
      55.3437  5.74577e+08
      55.2008  5.94074e+08
      55.0578  6.14228e+08
      54.9149  6.35061e+08
      54.7719  6.56595e+08
       54.629  6.78853e+08
       54.486   7.0186e+08
       54.343  7.25641e+08
      54.2001  7.50221e+08
      54.0571  7.75628e+08
      53.9142  8.01888e+08
      53.7712   8.2903e+08
      53.6283  8.57084e+08
      53.4853  8.86079e+08
      53.3424  9.16048e+08
      53.1994  9.47023e+08
      53.0564  9.79036e+08
      52.9135  1.01212e+09
      52.7705  1.04632e+09
      52.6276  1.08166e+09
      52.4846  1.11819e+09
      52.3417  1.15594e+09
      52.1987  1.19496e+09
      52.0558  1.23528e+09
      51.9128  1.27695e+09
      51.7698  1.32001e+09
      51.6269  1.36452e+09
      51.4839  1.41051e+09
       51.341  1.45805e+09
       51.198  1.50717e+09
      51.0551  1.55793e+09
      50.9121  1.61039e+09
      50.7692   1.6646e+09
      50.6262  1.72062e+09
      50.4833  1.77851e+09
      50.3403  1.83833e+09
      50.1973  1.90014e+09
      50.0544  1.96402e+09
      49.9114  2.03003e+09
      49.7685  2.09824e+09
      49.6255  2.16872e+09
      49.4826  2.24155e+09
      49.3396   2.3168e+09
      49.1967  2.39456e+09
      49.0537   2.4749e+09
      48.9107  2.55792e+09
      48.7678   2.6437e+09
      48.6248  2.73234e+09
      48.4819  2.82392e+09
      48.3389  2.91854e+09
       48.196  3.01631e+09
       48.053  3.11732e+09
      47.9101  3.22169e+09
      47.7671  3.32952e+09
      47.6241  3.44093e+09
      47.4812  3.55603e+09
      47.3382  3.67496e+09
      47.1953  3.79782e+09
      47.0523  3.92476e+09
      46.9094   4.0559e+09
      46.7664  4.19139e+09
      46.6235  4.33136e+09
      46.4805  4.47597e+09
      46.3375  4.62536e+09
      46.1946   4.7797e+09
      46.0516  4.93914e+09
      45.9087  5.10385e+09
      45.7657    5.274e+09
      45.6228  5.44978e+09
      45.4798  5.63136e+09
      45.3369  5.81894e+09
      45.1939  6.01271e+09
      45.0509  6.21288e+09
       44.908  6.41965e+09
       44.765  6.63324e+09
      44.6221  6.85387e+09
      44.4791  7.08177e+09
      44.3362  7.31718e+09
      44.1932  7.56035e+09
      44.0503  7.81153e+09
      43.9073  8.07097e+09
      43.7643  8.33895e+09
      43.6214  8.61575e+09
      43.4784  8.90165e+09
      43.3355  9.19695e+09
      43.1925  9.50195e+09
      43.0496  9.81698e+09
      42.9066  1.01424e+10
      42.7637  1.04784e+10
      42.6207  1.08255e+10
      42.4778   1.1184e+10
      42.3348  1.15542e+10
      42.1918  1.19366e+10
      42.0489  1.23315e+10
      41.9059  1.27394e+10
       41.763  1.31606e+10
        41.62  1.35956e+10
      41.4771  1.40448e+10
      41.3341  1.45088e+10
      41.1912  1.49879e+10
      41.0482  1.54827e+10
      40.9052  1.59937e+10
      40.7623  1.65214e+10
      40.6193  1.70663e+10
      40.4764  1.76291e+10
      40.3334  1.82102e+10
