Temperature = 1663.84K
THERMAL DISTRIBUTIONS:
  E, kcal/mol           W1
      145.743     0.106553
        145.6     0.110542
      145.457     0.114681
      145.314     0.118974
      145.171     0.123427
      145.028     0.128046
      144.885     0.132838
      144.742     0.137808
      144.599     0.142964
      144.456     0.148313
      144.313      0.15386
       144.17     0.159615
      144.028     0.165585
      143.885     0.171777
      143.742       0.1782
      143.599     0.184863
      143.456     0.191774
      143.313     0.198943
       143.17     0.206379
      143.027     0.214092
      142.884     0.222092
      142.741     0.230391
      142.598     0.238999
      142.455     0.247928
      142.312     0.257189
      142.169     0.266796
      142.026      0.27676
      141.883     0.287095
       141.74     0.297815
      141.597     0.308935
      141.454     0.320468
      141.311      0.33243
      141.168     0.344838
      141.025     0.357708
      140.882     0.371057
       140.74     0.384902
      140.597     0.399263
      140.454     0.414158
      140.311     0.429607
      140.168     0.445631
      140.025      0.46225
      139.882     0.479488
      139.739     0.497367
      139.596      0.51591
      139.453     0.535143
       139.31     0.555091
      139.167      0.57578
      139.024     0.597238
      138.881     0.619493
      138.738     0.642576
      138.595     0.666516
      138.452     0.691345
      138.309     0.717097
      138.166     0.743805
      138.023     0.771505
       137.88     0.800233
      137.737     0.830028
      137.595      0.86093
      137.452     0.892978
      137.309     0.926216
      137.166     0.960687
      137.023     0.996438
       136.88      1.03352
      136.737      1.07197
      136.594      1.11185
      136.451      1.15321
      136.308       1.1961
      136.165      1.24058
      136.022      1.28671
      135.879      1.33456
      135.736      1.38417
      135.593      1.43563
       135.45      1.48899
      135.307      1.54433
      135.164      1.60173
      135.021      1.66124
      134.878      1.72297
      134.735      1.78698
      134.592      1.85336
       134.45      1.92219
      134.307      1.99358
      134.164      2.06761
      134.021      2.14439
      133.878        2.224
      133.735      2.30656
      133.592      2.39218
      133.449      2.48096
      133.306      2.57303
      133.163      2.66851
       133.02      2.76752
      132.877      2.87019
      132.734      2.97666
      132.591      3.08706
      132.448      3.20155
      132.305      3.32027
      132.162      3.44339
      132.019      3.57105
      131.876      3.70343
      131.733       3.8407
       131.59      3.98304
      131.447      4.13065
      131.304      4.28371
      131.162      4.44242
      131.019      4.60699
      130.876      4.77764
      130.733      4.95459
       130.59      5.13808
      130.447      5.32834
      130.304      5.52562
      130.161      5.73019
      130.018       5.9423
      129.875      6.16225
      129.732       6.3903
      129.589      6.62678
      129.446      6.87197
      129.303      7.12621
       129.16      7.38982
      129.017      7.66316
      128.874      7.94657
      128.731      8.24044
      128.588      8.54513
      128.445      8.86106
      128.302      9.18863
      128.159      9.52827
      128.017      9.88042
      127.874      10.2455
      127.731      10.6241
      127.588      11.0166
      127.445      11.4236
      127.302      11.8456
      127.159      12.2831
      127.016      12.7367
      126.873       13.207
       126.73      13.6946
      126.587      14.2002
      126.444      14.7243
      126.301      15.2678
      126.158      15.8312
      126.015      16.4154
      125.872      17.0211
      125.729       17.649
      125.586         18.3
      125.443       18.975
        125.3      19.6747
      125.157      20.4002
      125.014      21.1524
      124.871      21.9321
      124.729      22.7406
      124.586      23.5787
      124.443      24.4477
        124.3      25.3485
      124.157      26.2825
      124.014      27.2507
      123.871      28.2545
      123.728      29.2951
      123.585       30.374
      123.442      31.4924
      123.299      32.6519
      123.156      33.8539
      123.013         35.1
       122.87      36.3919
      122.727      37.7311
      122.584      39.1195
      122.441      40.5587
      122.298      42.0508
      122.155      43.5975
      122.012       45.201
      121.869      46.8632
      121.726      48.5863
      121.584      50.3726
      121.441      52.2243
      121.298      54.1439
      121.155      56.1338
      121.012      58.1966
      120.869      60.3349
      120.726      62.5515
      120.583      64.8493
       120.44      67.2312
      120.297      69.7002
      120.154      72.2597
      120.011      74.9128
      119.868       77.663
      119.725      80.5137
      119.582      83.4688
      119.439       86.532
      119.296      89.7072
      119.153      92.9984
       119.01      96.4101
      118.867      99.9464
      118.724      103.612
      118.581      107.412
      118.439       111.35
      118.296      115.432
      118.153      119.664
       118.01       124.05
      117.867      128.596
      117.724      133.308
      117.581      138.193
      117.438      143.255
      117.295      148.503
      117.152      153.942
      117.009      159.579
      116.866      165.422
      116.723      171.479
       116.58      177.756
      116.437      184.262
      116.294      191.006
      116.151      197.995
      116.008       205.24
      115.865      212.748
      115.722       220.53
      115.579      228.596
      115.436      236.956
      115.293       245.62
      115.151        254.6
      115.008      263.907
      114.865      273.554
      114.722      283.551
      114.579      293.913
      114.436      304.651
      114.293      315.781
       114.15      327.316
      114.007       339.27
      113.864       351.66
      113.721        364.5
      113.578      377.808
      113.435      391.599
      113.292      405.893
      113.149      420.705
      113.006      436.057
      112.863      451.967
       112.72      468.455
      112.577      485.542
      112.434       503.25
      112.291      521.601
      112.148       540.62
      112.006      560.329
      111.863      580.754
       111.72       601.92
      111.577      623.855
      111.434      646.587
      111.291      670.144
      111.148      694.555
      111.005      719.853
      110.862      746.068
      110.719      773.235
      110.576      801.387
      110.433       830.56
       110.29      860.791
      110.147      892.119
      110.004      924.582
      109.861      958.221
      109.718       993.08
      109.575       1029.2
      109.432      1066.63
      109.289      1105.42
      109.146      1145.61
      109.003      1187.26
       108.86      1230.42
      108.718      1275.14
      108.575      1321.47
      108.432      1369.49
      108.289      1419.24
      108.146       1470.8
      108.003      1524.21
       107.86      1579.57
      107.717      1636.92
      107.574      1696.35
      107.431      1757.92
      107.288      1821.73
      107.145      1887.84
      107.002      1956.34
      106.859      2027.31
      106.716      2100.85
      106.573      2177.05
       106.43         2256
      106.287       2337.8
      106.144      2422.56
      106.001      2510.37
      105.858      2601.36
      105.715      2695.63
      105.573       2793.3
       105.43       2894.5
      105.287      2999.35
      105.144      3107.99
      105.001      3220.54
      104.858      3337.15
      104.715      3457.97
      104.572      3583.14
      104.429      3712.83
      104.286      3847.19
      104.143      3986.39
          104      4130.61
      103.857      4280.02
      103.714      4434.82
      103.571       4595.2
      103.428      4761.35
      103.285      4933.48
      103.142      5111.81
      102.999      5296.56
      102.856      5487.96
      102.713      5686.24
       102.57      5891.66
      102.428      6104.48
      102.285      6324.94
      102.142      6553.34
      101.999      6789.95
      101.856      7035.06
      101.713      7288.99
       101.57      7552.04
      101.427      7824.55
      101.284      8106.85
      101.141      8399.29
      100.998      8702.24
      100.855      9016.07
      100.712      9341.16
      100.569      9677.93
      100.426      10026.8
      100.283      10388.2
       100.14      10762.5
      99.9973      11150.3
      99.8543        11552
      99.7114      11968.1
      99.5684      12399.1
      99.4254      12845.6
      99.2825      13308.1
      99.1395      13787.2
      98.9966      14283.4
      98.8536      14797.5
      98.7107      15329.9
      98.5677      15881.4
      98.4248      16452.7
      98.2818      17044.5
      98.1388      17657.4
      97.9959      18292.3
      97.8529      18949.9
        97.71        19631
       97.567      20336.5
      97.4241      21067.3
      97.2811      21824.2
      97.1382      22608.2
      96.9952      23420.2
      96.8522      24261.3
      96.7093      25132.4
      96.5663      26034.6
      96.4234      26969.2
      96.2804      27937.1
      96.1375      28939.6
      95.9945      29977.9
      95.8516      31053.2
      95.7086        32167
      95.5656      33320.6
      95.4227      34515.3
      95.2797      35752.7
      95.1368      37034.3
      94.9938      38361.6
      94.8509      39736.2
      94.7079      41159.9
       94.565      42634.3
       94.422      44161.3
      94.2791      45742.8
      94.1361      47380.7
      93.9931      49076.9
      93.8502      50833.5
      93.7072      52652.8
      93.5643      54536.9
      93.4213        56488
      93.2784      58508.7
      93.1354      60601.3
      92.9925      62768.4
      92.8495      65012.7
      92.7065      67336.8
      92.5636      69743.6
      92.4206        72236
      92.2777      74817.1
      92.1347        77490
      91.9918      80257.9
      91.8488      83124.3
      91.7059      86092.5
      91.5629      89166.2
      91.4199      92349.2
       91.277      95645.2
       91.134      99058.3
      90.9911       102593
      90.8481       106252
      90.7052       110042
      90.5622       113967
      90.4193       118030
      90.2763       122238
      90.1333       126595
      89.9904       131107
      89.8474       135778
      89.7045       140616
      89.5615       145624
      89.4186       150811
      89.2756       156181
      89.1327       161742
      88.9897       167499
      88.8467       173461
      88.7038       179633
      88.5608       186024
      88.4179       192642
      88.2749       199494
       88.132       206588
       87.989       213933
      87.8461       221538
      87.7031       229412
      87.5602       237565
      87.4172       246006
      87.2742       254745
      87.1313       263794
      86.9883       273162
      86.8454       282861
      86.7024       292903
      86.5595       303299
      86.4165       314063
      86.2736       325207
      86.1306       336744
      85.9876       348689
      85.8447       361055
      85.7017       373857
      85.5588       387111
      85.4158       400833
      85.2729       415038
      85.1299       429744
       84.987       444969
       84.844       460730
       84.701       477047
      84.5581       493939
      84.4151       511426
      84.2722       529528
      84.1292       548268
      83.9863       567668
      83.8433       587751
      83.7004       608541
      83.5574       630062
      83.4144       652340
      83.2715       675402
      83.1285       699275
      82.9856       723988
      82.8426       749569
      82.6997       776050
      82.5567       803461
      82.4138       831835
      82.2708       861206
      82.1278       891608
      81.9849       923078
      81.8419       955653
       81.699       989371
       81.556  1.02427e+06
      81.4131   1.0604e+06
      81.2701  1.09779e+06
      81.1272   1.1365e+06
      80.9842  1.17656e+06
      80.8412  1.21803e+06
      80.6983  1.26095e+06
      80.5553  1.30537e+06
      80.4124  1.35136e+06
      80.2694  1.39895e+06
      80.1265  1.44821e+06
      79.9835   1.4992e+06
      79.8406  1.55197e+06
      79.6976  1.60658e+06
      79.5547  1.66311e+06
      79.4117  1.72162e+06
      79.2687  1.78218e+06
      79.1258  1.84485e+06
      78.9828  1.90971e+06
      78.8399  1.97685e+06
      78.6969  2.04633e+06
       78.554  2.11824e+06
       78.411  2.19266e+06
      78.2681  2.26968e+06
      78.1251  2.34939e+06
      77.9821  2.43189e+06
      77.8392  2.51727e+06
      77.6962  2.60562e+06
      77.5533  2.69706e+06
      77.4103   2.7917e+06
      77.2674  2.88963e+06
      77.1244  2.99098e+06
      76.9815  3.09587e+06
      76.8385  3.20441e+06
      76.6955  3.31674e+06
      76.5526  3.43298e+06
      76.4096  3.55327e+06
      76.2667  3.67776e+06
      76.1237  3.80658e+06
      75.9808  3.93988e+06
      75.8378  4.07783e+06
      75.6949  4.22058e+06
      75.5519   4.3683e+06
      75.4089  4.52116e+06
       75.266  4.67934e+06
       75.123  4.84302e+06
      74.9801  5.01239e+06
      74.8371  5.18765e+06
      74.6942  5.36901e+06
      74.5512  5.55666e+06
      74.4083  5.75084e+06
      74.2653  5.95177e+06
      74.1223  6.15967e+06
      73.9794  6.37479e+06
      73.8364  6.59738e+06
      73.6935   6.8277e+06
      73.5505  7.06601e+06
      73.4076  7.31259e+06
      73.2646  7.56772e+06
      73.1217   7.8317e+06
      72.9787  8.10484e+06
      72.8357  8.38745e+06
      72.6928  8.67985e+06
      72.5498  8.98238e+06
      72.4069  9.29539e+06
      72.2639  9.61925e+06
       72.121  9.95432e+06
       71.978   1.0301e+07
      71.8351  1.06597e+07
      71.6921  1.10308e+07
      71.5492  1.14147e+07
      71.4062  1.18119e+07
      71.2632  1.22228e+07
      71.1203   1.2648e+07
      70.9773  1.30879e+07
      70.8344  1.35429e+07
      70.6914  1.40137e+07
      70.5485  1.45008e+07
      70.4055  1.50046e+07
      70.2626  1.55259e+07
      70.1196  1.60652e+07
      69.9766  1.66231e+07
      69.8337  1.72002e+07
      69.6907  1.77973e+07
      69.5478  1.84149e+07
      69.4048  1.90539e+07
      69.2619  1.97149e+07
      69.1189  2.03986e+07
       68.976   2.1106e+07
       68.833  2.18377e+07
        68.69  2.25946e+07
      68.5471  2.33776e+07
      68.4041  2.41875e+07
      68.2612  2.50254e+07
      68.1182  2.58921e+07
      67.9753  2.67886e+07
      67.8323  2.77159e+07
      67.6894  2.86751e+07
      67.5464  2.96674e+07
      67.4034  3.06937e+07
      67.2605  3.17553e+07
      67.1175  3.28534e+07
      66.9746  3.39892e+07
      66.8316  3.51641e+07
      66.6887  3.63793e+07
      66.5457  3.76362e+07
      66.4028  3.89362e+07
      66.2598  4.02809e+07
      66.1168  4.16717e+07
      65.9739  4.31102e+07
      65.8309  4.45981e+07
       65.688  4.61369e+07
       65.545  4.77285e+07
      65.4021  4.93747e+07
      65.2591  5.10772e+07
      65.1162  5.28381e+07
      64.9732  5.46593e+07
      64.8302  5.65428e+07
      64.6873  5.84908e+07
      64.5443  6.05054e+07
      64.4014   6.2589e+07
      64.2584  6.47439e+07
      64.1155  6.69725e+07
      63.9725  6.92772e+07
      63.8296  7.16607e+07
      63.6866  7.41257e+07
      63.5437  7.66749e+07
      63.4007  7.93112e+07
      63.2577  8.20375e+07
      63.1148  8.48569e+07
      62.9718  8.77725e+07
      62.8289  9.07876e+07
      62.6859  9.39055e+07
       62.543  9.71299e+07
         62.4  1.00464e+08
      62.2571  1.03912e+08
      62.1141  1.07477e+08
      61.9711  1.11164e+08
      61.8282  1.14977e+08
      61.6852  1.18919e+08
      61.5423  1.22996e+08
      61.3993  1.27211e+08
      61.2564   1.3157e+08
      61.1134  1.36077e+08
      60.9705  1.40738e+08
      60.8275  1.45557e+08
      60.6845   1.5054e+08
      60.5416  1.55692e+08
      60.3986  1.61019e+08
      60.2557  1.66527e+08
      60.1127  1.72223e+08
      59.9698  1.78112e+08
      59.8268    1.842e+08
      59.6839  1.90496e+08
      59.5409  1.97005e+08
      59.3979  2.03734e+08
       59.255  2.10692e+08
       59.112  2.17886e+08
      58.9691  2.25324e+08
      58.8261  2.33014e+08
      58.6832  2.40964e+08
      58.5402  2.49184e+08
      58.3973  2.57682e+08
      58.2543  2.66467e+08
      58.1113   2.7555e+08
      57.9684  2.84941e+08
      57.8254  2.94649e+08
      57.6825  3.04685e+08
      57.5395   3.1506e+08
      57.3966  3.25787e+08
      57.2536  3.36876e+08
      57.1107  3.48339e+08
      56.9677   3.6019e+08
      56.8248  3.72441e+08
      56.6818  3.85105e+08
      56.5388  3.98197e+08
      56.3959   4.1173e+08
      56.2529   4.2572e+08
        56.11  4.40182e+08
       55.967  4.55131e+08
      55.8241  4.70584e+08
      55.6811  4.86558e+08
      55.5382   5.0307e+08
      55.3952  5.20138e+08
      55.2522  5.37781e+08
      55.1093  5.56017e+08
      54.9663  5.74868e+08
      54.8234  5.94352e+08
      54.6804  6.14492e+08
      54.5375  6.35309e+08
      54.3945  6.56825e+08
      54.2516  6.79065e+08
      54.1086  7.02052e+08
      53.9656   7.2581e+08
      53.8227  7.50367e+08
      53.6797  7.75748e+08
      53.5368  8.01981e+08
      53.3938  8.29093e+08
      53.2509  8.57116e+08
      53.1079  8.86078e+08
       52.965   9.1601e+08
       52.822  9.46946e+08
       52.679  9.78918e+08
      52.5361  1.01196e+09
      52.3931  1.04611e+09
      52.2502   1.0814e+09
      52.1072  1.11788e+09
      51.9643  1.15557e+09
      51.8213  1.19453e+09
      51.6784  1.23479e+09
      51.5354  1.27639e+09
      51.3924  1.31938e+09
      51.2495  1.36381e+09
      51.1065  1.40973e+09
      50.9636  1.45718e+09
      50.8206  1.50621e+09
      50.6777  1.55687e+09
      50.5347  1.60923e+09
      50.3918  1.66334e+09
      50.2488  1.71924e+09
      50.1058  1.77702e+09
      49.9629  1.83671e+09
      49.8199   1.8984e+09
       49.677  1.96214e+09
       49.534    2.028e+09
      49.3911  2.09606e+09
      49.2481  2.16638e+09
      49.1052  2.23904e+09
      48.9622  2.31411e+09
      48.8193  2.39168e+09
      48.6763  2.47183e+09
      48.5333  2.55465e+09
      48.3904  2.64021e+09
      48.2474  2.72861e+09
      48.1045  2.81995e+09
      47.9615  2.91433e+09
      47.8186  3.01183e+09
      47.6756  3.11256e+09
      47.5327  3.21664e+09
      47.3897  3.32417e+09
      47.2467  3.43526e+09
      47.1038  3.55003e+09
      46.9608   3.6686e+09
      46.8179   3.7911e+09
      46.6749  3.91765e+09
       46.532  4.04839e+09
       46.389  4.18345e+09
      46.2461  4.32298e+09
      46.1031  4.46712e+09
      45.9601  4.61603e+09
      45.8172  4.76985e+09
      45.6742  4.92876e+09
      45.5313  5.09291e+09
      45.3883  5.26248e+09
      45.2454  5.43765e+09
      45.1024  5.61859e+09
      44.9595  5.80551e+09
      44.8165  5.99858e+09
      44.6735  6.19802e+09
      44.5306  6.40402e+09
      44.3876  6.61682e+09
      44.2447  6.83662e+09
      44.1017  7.06365e+09
      43.9588  7.29815e+09
      43.8158  7.54037e+09
      43.6729  7.79055e+09
      43.5299  8.04896e+09
      43.3869  8.31586e+09
       43.244  8.59153e+09
       43.101  8.87625e+09
      42.9581  9.17032e+09
      42.8151  9.47404e+09
      42.6722  9.78772e+09
      42.5292  1.01117e+10
      42.3863  1.04463e+10
      42.2433  1.07919e+10
      42.1003  1.11488e+10
      41.9574  1.15173e+10
      41.8144   1.1898e+10
      41.6715  1.22911e+10
      41.5285  1.26971e+10
      41.3856  1.31163e+10
      41.2426  1.35493e+10
      41.0997  1.39964e+10
      40.9567  1.44581e+10
      40.8138   1.4935e+10
      40.6708  1.54274e+10
      40.5278  1.59358e+10
      40.3849  1.64609e+10
