Temperature = 1646.24K
THERMAL DISTRIBUTIONS:
  E, kcal/mol           W1
      144.345    0.0865359
      144.202    0.0898143
      144.059    0.0932164
      143.916    0.0967472
      143.773     0.100411
       143.63     0.104214
      143.487      0.10816
      143.344     0.112255
      143.201     0.116505
      143.058     0.120915
      142.915     0.125492
      142.772     0.130241
      142.629      0.13517
      142.486     0.140285
      142.343     0.145592
      142.201       0.1511
      142.058     0.156816
      141.915     0.162748
      141.772     0.168903
      141.629      0.17529
      141.486     0.181918
      141.343     0.188797
        141.2     0.195934
      141.057     0.203341
      140.914     0.211027
      140.771     0.219002
      140.628     0.227279
      140.485     0.235867
      140.342     0.244778
      140.199     0.254026
      140.056     0.263622
      139.913     0.273579
       139.77     0.283911
      139.627     0.294633
      139.484     0.305758
      139.341     0.317303
      139.198     0.329281
      139.056     0.341711
      138.913     0.354609
       138.77     0.367992
      138.627     0.381879
      138.484     0.396289
      138.341      0.41124
      138.198     0.426754
      138.055     0.442852
      137.912     0.459555
      137.769     0.476887
      137.626      0.49487
      137.483      0.51353
       137.34     0.532891
      137.197      0.55298
      137.054     0.573824
      136.911     0.595452
      136.768     0.617892
      136.625     0.641176
      136.482     0.665334
      136.339     0.690401
      136.196     0.716408
      136.053     0.743393
      135.911     0.771392
      135.768     0.800441
      135.625     0.830582
      135.482     0.861854
      135.339     0.894301
      135.196     0.927965
      135.053     0.962893
       134.91     0.999131
      134.767      1.03673
      134.624      1.07574
      134.481      1.11621
      134.338       1.1582
      134.195      1.20177
      134.052      1.24697
      133.909      1.29386
      133.766      1.34252
      133.623        1.393
       133.48      1.44537
      133.337       1.4997
      133.194      1.55607
      133.051      1.61455
      132.908      1.67522
      132.765      1.73817
      132.623      1.80348
       132.48      1.87123
      132.337      1.94152
      132.194      2.01444
      132.051      2.09009
      131.908      2.16857
      131.765         2.25
      131.622      2.33447
      131.479       2.4221
      131.336      2.51301
      131.193      2.60733
       131.05      2.70517
      130.907      2.80668
      130.764      2.91198
      130.621      3.02122
      130.478      3.13454
      130.335      3.25211
      130.192      3.37407
      130.049      3.50059
      129.906      3.63184
      129.763      3.76799
       129.62      3.90924
      129.478      4.05576
      129.335      4.20775
      129.192      4.36543
      129.049        4.529
      128.906      4.69867
      128.763      4.87469
       128.62      5.05728
      128.477      5.24668
      128.334      5.44316
      128.191      5.64697
      128.048      5.85839
      127.905       6.0777
      127.762      6.30519
      127.619      6.54117
      127.476      6.78596
      127.333      7.03988
       127.19      7.30327
      127.047      7.57649
      126.904      7.85989
      126.761      8.15386
      126.618      8.45879
      126.475      8.77509
      126.332      9.10318
       126.19       9.4435
      126.047       9.7965
      125.904      10.1627
      125.761      10.5424
      125.618      10.9364
      125.475       11.345
      125.332      11.7688
      125.189      12.2085
      125.046      12.6645
      124.903      13.1374
       124.76       13.628
      124.617      14.1368
      124.474      14.6646
      124.331       15.212
      124.188      15.7798
      124.045      16.3687
      123.902      16.9795
      123.759       17.613
      123.616      18.2701
      123.473      18.9516
       123.33      19.6585
      123.187      20.3916
      123.045       21.152
      122.902      21.9407
      122.759      22.7587
      122.616       23.607
      122.473      24.4869
       122.33      25.3995
      122.187      26.3459
      122.044      27.3276
      121.901      28.3456
      121.758      29.4015
      121.615      30.4966
      121.472      31.6323
      121.329      32.8102
      121.186      34.0318
      121.043      35.2987
        120.9      36.6127
      120.757      37.9754
      120.614      39.3886
      120.471      40.8542
      120.328      42.3743
      120.185      43.9506
      120.042      45.5854
        119.9      47.2809
      119.757      49.0391
      119.614      50.8625
      119.471      52.7535
      119.328      54.7146
      119.185      56.7483
      119.042      58.8574
      118.899      61.0446
      118.756      63.3127
      118.613      65.6649
       118.47      68.1042
      118.327      70.6337
      118.184      73.2569
      118.041      75.9772
      117.898      78.7981
      117.755      81.7234
      117.612       84.757
      117.469      87.9027
      117.326      91.1649
      117.183      94.5476
       117.04      98.0555
      116.897      101.693
      116.754      105.465
      116.612      109.376
      116.469      113.432
      116.326      117.638
      116.183          122
       116.04      126.522
      115.897      131.211
      115.754      136.074
      115.611      141.116
      115.468      146.345
      115.325      151.766
      115.182      157.388
      115.039      163.217
      114.896      169.261
      114.753      175.528
       114.61      182.027
      114.467      188.765
      114.324      195.752
      114.181      202.996
      114.038      210.508
      113.895      218.296
      113.752      226.372
      113.609      234.745
      113.467      243.427
      113.324      252.429
      113.181      261.763
      113.038       271.44
      112.895      281.474
      112.752      291.877
      112.609      302.664
      112.466      313.848
      112.323      325.443
       112.18      337.466
      112.037      349.931
      111.894      362.854
      111.751      376.254
      111.608      390.146
      111.465      404.549
      111.322      419.482
      111.179      434.964
      111.036      451.016
      110.893      467.658
       110.75      484.911
      110.607      502.799
      110.464      521.344
      110.322       540.57
      110.179      560.503
      110.036      581.168
      109.893      602.593
       109.75      624.804
      109.607      647.831
      109.464      671.703
      109.321      696.451
      109.178      722.108
      109.035      748.707
      108.892      776.282
      108.749      804.868
      108.606      834.503
      108.463      865.225
       108.32      897.074
      108.177      930.091
      108.034      964.319
      107.891      999.801
      107.748      1036.58
      107.605      1074.71
      107.462      1114.24
      107.319      1155.22
      107.176       1197.7
      107.034      1241.73
      106.891      1287.38
      106.748      1334.69
      106.605      1383.74
      106.462      1434.59
      106.319       1487.3
      106.176      1541.93
      106.033      1598.57
       105.89      1657.27
      105.747      1718.13
      105.604      1781.21
      105.461      1846.59
      105.318      1914.37
      105.175      1984.63
      105.032      2057.45
      104.889      2132.94
      104.746      2211.18
      104.603      2292.29
       104.46      2376.35
      104.317      2463.49
      104.174      2553.81
      104.031      2647.43
      103.889      2744.46
      103.746      2845.04
      103.603      2949.29
       103.46      3057.35
      103.317      3169.35
      103.174      3285.43
      103.031      3405.75
      102.888      3530.46
      102.745      3659.71
      102.602      3793.68
      102.459      3932.53
      102.316      4076.45
      102.173      4225.61
       102.03       4380.2
      101.887      4540.43
      101.744       4706.5
      101.601      4878.61
      101.458         5057
      101.315      5241.88
      101.172      5433.49
      101.029      5632.07
      100.886      5837.89
      100.743      6051.19
      100.601      6272.25
      100.458      6501.36
      100.315       6738.8
      100.172      6984.88
      100.029      7239.91
      99.8858      7504.21
      99.7428      7778.11
      99.5998      8061.98
      99.4569      8356.16
      99.3139      8661.03
       99.171      8976.97
       99.028      9304.39
      98.8851      9643.71
      98.7421      9995.34
      98.5992      10359.7
      98.4562      10737.4
      98.3133      11128.7
      98.1703      11534.3
      98.0273      11954.5
      97.8844        12390
      97.7414      12841.3
      97.5985        13309
      97.4555      13793.6
      97.3126      14295.8
      97.1696      14816.2
      97.0267      15355.5
      96.8837      15914.3
      96.7407      16493.4
      96.5978      17093.4
      96.4548      17715.2
      96.3119      18359.5
      96.1689      19027.1
       96.026      19718.9
       95.883      20435.8
      95.7401      21178.6
      95.5971      21948.2
      95.4541      22745.8
      95.3112      23572.1
      95.1682      24428.4
      95.0253      25315.6
      94.8823      26234.9
      94.7394      27187.5
      94.5964      28174.4
      94.4535      29197.1
      94.3105      30256.7
      94.1675      31354.6
      94.0246      32492.1
      93.8816      33670.8
      93.7387        34892
      93.5957      36157.3
      93.4528      37468.2
      93.3098      38826.5
      93.1669      40233.8
      93.0239      41691.9
      92.8809      43202.6
       92.738      44767.8
       92.595      46389.4
      92.4521      48069.5
      92.3091      49810.2
      92.1662      51613.6
      92.0232      53482.1
      91.8803      55417.8
      91.7373      57423.3
      91.5943        59501
      91.4514      61653.6
      91.3084      63883.7
      91.1655      66194.1
      91.0225      68587.6
      90.8796      71067.3
      90.7366      73636.3
      90.5937      76297.6
      90.4507      79054.7
      90.3078        81911
      90.1648        84870
      90.0218      87935.4
      89.8789        91111
      89.7359      94400.7
       89.593      97808.7
        89.45       101339
      89.3071       104996
      89.1641       108785
      89.0212       112710
      88.8782       116775
      88.7352       120987
      88.5923       125349
      88.4493       129869
      88.3064       134550
      88.1634       139399
      88.0205       144423
      87.8775       149626
      87.7346       155016
      87.5916       160600
      87.4486       166383
      87.3057       172374
      87.1627       178579
      87.0198       185007
      86.8768       191665
      86.7339       198561
      86.5909       205704
       86.448       213103
       86.305       220767
       86.162       228705
      86.0191       236927
      85.8761       245443
      85.7332       254264
      85.5902       263401
      85.4473       272864
      85.3043       282665
      85.1614       292816
      85.0184       303331
      84.8754       314221
      84.7325       325500
      84.5895       337182
      84.4466       349281
      84.3036       361812
      84.1607       374790
      84.0177       388232
      83.8748       402153
      83.7318       416571
      83.5889       431503
      83.4459       446968
      83.3029       462984
        83.16       479571
       83.017       496749
      82.8741       514540
      82.7311       532964
      82.5882       552045
      82.4452       571806
      82.3023       592270
      82.1593       613463
      82.0163       635410
      81.8734       658138
      81.7304       681676
      81.5875       706050
      81.4445       731292
      81.3016       757431
      81.1586       784500
      81.0157       812531
      80.8727       841559
      80.7297       871618
      80.5868       902745
      80.4438       934978
      80.3009       968355
      80.1579  1.00292e+06
       80.015  1.03871e+06
       79.872  1.07577e+06
      79.7291  1.11414e+06
      79.5861  1.15388e+06
      79.4431  1.19503e+06
      79.3002  1.23764e+06
      79.1572  1.28175e+06
      79.0143  1.32744e+06
      78.8713  1.37474e+06
      78.7284  1.42372e+06
      78.5854  1.47443e+06
      78.4425  1.52694e+06
      78.2995  1.58131e+06
      78.1565  1.63761e+06
      78.0136  1.69589e+06
      77.8706  1.75625e+06
      77.7277  1.81874e+06
      77.5847  1.88344e+06
      77.4418  1.95042e+06
      77.2988  2.01978e+06
      77.1559  2.09159e+06
      77.0129  2.16595e+06
      76.8699  2.24292e+06
       76.727  2.32262e+06
       76.584  2.40514e+06
      76.4411  2.49057e+06
      76.2981  2.57902e+06
      76.1552   2.6706e+06
      76.0122   2.7654e+06
      75.8693  2.86356e+06
      75.7263  2.96517e+06
      75.5834  3.07038e+06
      75.4404  3.17929e+06
      75.2974  3.29205e+06
      75.1545  3.40879e+06
      75.0115  3.52964e+06
      74.8686  3.65475e+06
      74.7256  3.78427e+06
      74.5827  3.91835e+06
      74.4397  4.05716e+06
      74.2968  4.20086e+06
      74.1538  4.34962e+06
      74.0108  4.50361e+06
      73.8679  4.66303e+06
      73.7249  4.82806e+06
       73.582  4.99889e+06
       73.439  5.17574e+06
      73.2961   5.3588e+06
      73.1531   5.5483e+06
      73.0102  5.74447e+06
      72.8672  5.94753e+06
      72.7242  6.15772e+06
      72.5813  6.37531e+06
      72.4383  6.60053e+06
      72.2954  6.83367e+06
      72.1524  7.07499e+06
      72.0095  7.32478e+06
      71.8665  7.58334e+06
      71.7236  7.85098e+06
      71.5806    8.128e+06
      71.4376  8.41475e+06
      71.2947  8.71155e+06
      71.1517  9.01875e+06
      71.0088  9.33672e+06
      70.8658  9.66584e+06
      70.7229  1.00065e+07
      70.5799  1.03591e+07
       70.437   1.0724e+07
       70.294  1.11017e+07
       70.151  1.14927e+07
      70.0081  1.18973e+07
      69.8651   1.2316e+07
      69.7222  1.27495e+07
      69.5792  1.31981e+07
      69.4363  1.36623e+07
      69.2933  1.41429e+07
      69.1504  1.46402e+07
      69.0074  1.51549e+07
      68.8644  1.56875e+07
      68.7215  1.62388e+07
      68.5785  1.68093e+07
      68.4356  1.73998e+07
      68.2926  1.80109e+07
      68.1497  1.86433e+07
      68.0067  1.92977e+07
      67.8638   1.9975e+07
      67.7208  2.06759e+07
      67.5779  2.14013e+07
      67.4349  2.21519e+07
      67.2919  2.29288e+07
       67.149  2.37326e+07
       67.006  2.45645e+07
      66.8631  2.54254e+07
      66.7201  2.63163e+07
      66.5772  2.72381e+07
      66.4342  2.81921e+07
      66.2913  2.91792e+07
      66.1483  3.02007e+07
      66.0053  3.12578e+07
      65.8624  3.23516e+07
      65.7194  3.34834e+07
      65.5765  3.46545e+07
      65.4335  3.58664e+07
      65.2906  3.71204e+07
      65.1476  3.84179e+07
      65.0047  3.97605e+07
      64.8617  4.11497e+07
      64.7187  4.25872e+07
      64.5758  4.40745e+07
      64.4328  4.56134e+07
      64.2899  4.72057e+07
      64.1469  4.88533e+07
       64.004  5.05579e+07
       63.861  5.23217e+07
      63.7181  5.41465e+07
      63.5751  5.60347e+07
      63.4321  5.79882e+07
      63.2892  6.00093e+07
      63.1462  6.21005e+07
      63.0033   6.4264e+07
      62.8603  6.65024e+07
      62.7174  6.88183e+07
      62.5744  7.12142e+07
      62.4315  7.36931e+07
      62.2885  7.62576e+07
      62.1455  7.89107e+07
      62.0026  8.16556e+07
      61.8596  8.44953e+07
      61.7167  8.74331e+07
      61.5737  9.04723e+07
      61.4308  9.36165e+07
      61.2878  9.68692e+07
      61.1449  1.00234e+08
      61.0019  1.03715e+08
       60.859  1.07316e+08
       60.716  1.11041e+08
       60.573  1.14895e+08
      60.4301  1.18882e+08
      60.2871  1.23005e+08
      60.1442  1.27271e+08
      60.0012  1.31684e+08
      59.8583  1.36249e+08
      59.7153  1.40971e+08
      59.5724  1.45855e+08
      59.4294  1.50908e+08
      59.2864  1.56134e+08
      59.1435   1.6154e+08
      59.0005  1.67132e+08
      58.8576  1.72916e+08
      58.7146  1.78899e+08
      58.5717  1.85087e+08
      58.4287  1.91488e+08
      58.2858  1.98109e+08
      58.1428  2.04957e+08
      57.9998   2.1204e+08
      57.8569  2.19366e+08
      57.7139  2.26943e+08
       57.571  2.34781e+08
       57.428  2.42887e+08
      57.2851   2.5127e+08
      57.1421  2.59941e+08
      56.9992  2.68909e+08
      56.8562  2.78185e+08
      56.7132  2.87778e+08
      56.5703  2.97699e+08
      56.4273   3.0796e+08
      56.2844  3.18571e+08
      56.1414  3.29546e+08
      55.9985  3.40896e+08
      55.8555  3.52635e+08
      55.7126  3.64774e+08
      55.5696  3.77328e+08
      55.4266  3.90311e+08
      55.2837  4.03738e+08
      55.1407  4.17622e+08
      54.9978  4.31981e+08
      54.8548   4.4683e+08
      54.7119  4.62185e+08
      54.5689  4.78064e+08
       54.426  4.94485e+08
       54.283  5.11465e+08
        54.14  5.29024e+08
      53.9971  5.47181e+08
      53.8541  5.65957e+08
      53.7112  5.85372e+08
      53.5682  6.05448e+08
      53.4253  6.26207e+08
      53.2823  6.47673e+08
      53.1394  6.69868e+08
      52.9964  6.92819e+08
      52.8535   7.1655e+08
      52.7105  7.41087e+08
      52.5675  7.66458e+08
      52.4246  7.92691e+08
      52.2816  8.19814e+08
      52.1387  8.47859e+08
      51.9957  8.76855e+08
      51.8528  9.06836e+08
      51.7098  9.37833e+08
      51.5669  9.69881e+08
      51.4239  1.00302e+09
      51.2809  1.03727e+09
       51.138  1.07269e+09
       50.995  1.10931e+09
      50.8521  1.14717e+09
      50.7091  1.18631e+09
      50.5662  1.22678e+09
      50.4232  1.26861e+09
      50.2803  1.31186e+09
      50.1373  1.35657e+09
      49.9943   1.4028e+09
      49.8514  1.45058e+09
      49.7084  1.49999e+09
      49.5655  1.55105e+09
      49.4225  1.60385e+09
      49.2796  1.65843e+09
      49.1366  1.71484e+09
      48.9937  1.77317e+09
      48.8507  1.83346e+09
      48.7077  1.89578e+09
      48.5648   1.9602e+09
      48.4218   2.0268e+09
      48.2789  2.09564e+09
      48.1359  2.16679e+09
       47.993  2.24034e+09
        47.85  2.31637e+09
      47.7071  2.39496e+09
      47.5641  2.47619e+09
      47.4211  2.56016e+09
      47.2782  2.64694e+09
      47.1352  2.73665e+09
      46.9923  2.82936e+09
      46.8493   2.9252e+09
      46.7064  3.02425e+09
      46.5634  3.12662e+09
      46.4205  3.23243e+09
      46.2775   3.3418e+09
      46.1345  3.45483e+09
      45.9916  3.57165e+09
      45.8486  3.69238e+09
      45.7057  3.81717e+09
      45.5627  3.94613e+09
      45.4198  4.07941e+09
      45.2768  4.21716e+09
      45.1339  4.35951e+09
      44.9909  4.50663e+09
       44.848  4.65867e+09
       44.705   4.8158e+09
       44.562  4.97817e+09
      44.4191  5.14598e+09
      44.2761  5.31939e+09
      44.1332  5.49859e+09
      43.9902  5.68378e+09
      43.8473  5.87514e+09
      43.7043  6.07289e+09
      43.5614  6.27724e+09
      43.4184  6.48841e+09
      43.2754  6.70661e+09
      43.1325  6.93208e+09
      42.9895  7.16507e+09
      42.8466  7.40582e+09
      42.7036  7.65458e+09
      42.5607  7.91162e+09
      42.4177  8.17721e+09
      42.2748  8.45164e+09
      42.1318  8.73519e+09
      41.9888  9.02817e+09
      41.8459  9.33089e+09
      41.7029  9.64366e+09
        41.56  9.96682e+09
       41.417  1.03007e+10
      41.2741  1.06457e+10
      41.1311  1.10021e+10
      40.9882  1.13703e+10
      40.8452  1.17508e+10
      40.7022  1.21438e+10
      40.5593  1.25499e+10
      40.4163  1.29694e+10
      40.2734  1.34028e+10
      40.1304  1.38506e+10
      39.9875  1.43132e+10
      39.8445  1.47911e+10
      39.7016  1.52848e+10
      39.5586  1.57948e+10
      39.4156  1.63216e+10
      39.2727  1.68659e+10
      39.1297  1.74281e+10
      38.9868  1.80089e+10
