Temperature = 1661.93K
THERMAL DISTRIBUTIONS:
  E, kcal/mol           W1
      145.591     0.103056
      145.448     0.106919
      145.306     0.110927
      145.163     0.115084
       145.02     0.119397
      144.877     0.123872
      144.734     0.128513
      144.591     0.133328
      144.448     0.138323
      144.305     0.143504
      144.162     0.148879
      144.019     0.154454
      143.876     0.160238
      143.733     0.166238
       143.59     0.172462
      143.447     0.178918
      143.304     0.185616
      143.161     0.192563
      143.018      0.19977
      142.875     0.207245
      142.732        0.215
      142.589     0.223044
      142.446     0.231388
      142.303     0.240043
      142.161     0.249022
      142.018     0.258335
      141.875     0.267995
      141.732     0.278016
      141.589      0.28841
      141.446     0.299192
      141.303     0.310376
       141.16     0.321976
      141.017     0.334009
      140.874     0.346491
      140.731     0.359438
      140.588     0.372866
      140.445     0.386796
      140.302     0.401244
      140.159      0.41623
      140.016     0.431775
      139.873     0.447898
       139.73     0.464622
      139.587     0.481968
      139.444      0.49996
      139.301     0.518622
      139.158     0.537979
      139.015     0.558056
      138.873      0.57888
       138.73     0.600478
      138.587     0.622881
      138.444     0.646116
      138.301     0.670216
      138.158     0.695213
      138.015     0.721139
      137.872     0.748029
      137.729     0.775918
      137.586     0.804845
      137.443     0.834847
        137.3     0.865964
      137.157     0.898237
      137.014      0.93171
      136.871     0.966426
      136.728      1.00243
      136.585      1.03978
      136.442      1.07851
      136.299      1.11868
      136.156      1.16034
      136.013      1.20355
       135.87      1.24836
      135.728      1.29483
      135.585      1.34304
      135.442      1.39303
      135.299      1.44487
      135.156      1.49864
      135.013       1.5544
       134.87      1.61224
      134.727      1.67221
      134.584      1.73442
      134.441      1.79893
      134.298      1.86583
      134.155      1.93521
      134.012      2.00717
      133.869      2.08179
      133.726      2.15918
      133.583      2.23944
       133.44      2.32267
      133.297      2.40898
      133.154      2.49849
      133.011      2.59132
      132.868      2.68759
      132.725      2.78742
      132.583      2.89095
       132.44      2.99832
      132.297      3.10965
      132.154      3.22511
      132.011      3.34485
      131.868      3.46902
      131.725      3.59778
      131.582       3.7313
      131.439      3.86977
      131.296      4.01336
      131.153      4.16226
       131.01      4.31666
      130.867      4.47678
      130.724      4.64282
      130.581        4.815
      130.438      4.99354
      130.295      5.17869
      130.152      5.37067
      130.009      5.56975
      129.866      5.77619
      129.723      5.99026
       129.58      6.21223
      129.437      6.44241
      129.295      6.68108
      129.152      6.92857
      129.009       7.1852
      128.866      7.45131
      128.723      7.72724
       128.58      8.01335
      128.437      8.31003
      128.294      8.61765
      128.151      8.93663
      128.008      9.26738
      127.865      9.61032
      127.722      9.96592
      127.579      10.3346
      127.436      10.7169
      127.293      11.1134
       127.15      11.5244
      127.007      11.9506
      126.864      12.3925
      126.721      12.8506
      126.578      13.3257
      126.435      13.8183
      126.292       14.329
       126.15      14.8585
      126.007      15.4075
      125.864      15.9768
      125.721       16.567
      125.578       17.179
      125.435      17.8134
      125.292      18.4713
      125.149      19.1533
      125.006      19.8605
      124.863      20.5937
       124.72      21.3539
      124.577       22.142
      124.434      22.9591
      124.291      23.8063
      124.148      24.6846
      124.005      25.5952
      123.862      26.5394
      123.719      27.5182
      123.576       28.533
      123.433      29.5851
       123.29      30.6759
      123.147      31.8067
      123.004      32.9791
      122.862      34.1946
      122.719      35.4547
      122.576      36.7611
      122.433      38.1155
       122.29      39.5196
      122.147      40.9753
      122.004      42.4844
      121.861      44.0489
      121.718      45.6708
      121.575      47.3522
      121.432      49.0954
      121.289      50.9024
      121.146      52.7758
      121.003      54.7179
       120.86      56.7312
      120.717      58.8183
      120.574      60.9819
      120.431      63.2249
      120.288      65.5501
      120.145      67.9605
      120.002      70.4592
      119.859      73.0495
      119.717      75.7347
      119.574      78.5182
      119.431      81.4037
      119.288      84.3949
      119.145      87.4956
      119.002      90.7098
      118.859      94.0417
      118.716      97.4955
      118.573      101.076
       118.43      104.787
      118.287      108.634
      118.144      112.622
      118.001      116.756
      117.858       121.04
      117.715      125.482
      117.572      130.086
      117.429      134.858
      117.286      139.805
      117.143      144.933
          117      150.248
      116.857      155.757
      116.714      161.467
      116.572      167.386
      116.429      173.522
      116.286      179.881
      116.143      186.473
          116      193.305
      115.857      200.387
      115.714      207.727
      115.571      215.335
      115.428      223.221
      115.285      231.395
      115.142      239.866
      114.999      248.647
      114.856      257.748
      114.713      267.181
       114.57      276.958
      114.427      287.092
      114.284      297.595
      114.141       308.48
      113.998      319.763
      113.855      331.456
      113.712      343.576
      113.569      356.137
      113.426      369.156
      113.284      382.649
      113.141      396.633
      112.998      411.126
      112.855      426.147
      112.712      441.715
      112.569      457.849
      112.426      474.571
      112.283      491.901
       112.14      509.861
      111.997      528.475
      111.854      547.766
      111.711      567.758
      111.568      588.478
      111.425       609.95
      111.282      632.203
      111.139      655.265
      110.996      679.165
      110.853      703.934
       110.71      729.602
      110.567      756.203
      110.424       783.77
      110.281      812.338
      110.139      841.943
      109.996      872.624
      109.853      904.418
       109.71      937.365
      109.567      971.509
      109.424      1006.89
      109.281      1043.56
      109.138      1081.55
      108.995      1120.93
      108.852      1161.73
      108.709      1204.01
      108.566      1247.83
      108.423      1293.23
       108.28      1340.28
      108.137      1389.03
      107.994      1439.55
      107.851       1491.9
      107.708      1546.15
      107.565      1602.36
      107.422      1660.61
      107.279      1720.97
      107.136      1783.51
      106.993      1848.31
      106.851      1915.46
      106.708      1985.04
      106.565      2057.14
      106.422      2131.85
      106.279      2209.26
      106.136      2289.46
      105.993      2372.57
       105.85      2458.69
      105.707      2547.91
      105.564      2640.37
      105.421      2736.16
      105.278      2835.41
      105.135      2938.25
      104.992      3044.81
      104.849      3155.21
      104.706       3269.6
      104.563      3388.13
       104.42      3510.93
      104.277      3638.16
      104.134      3769.99
      103.991      3906.57
      103.848      4048.08
      103.706       4194.7
      103.563       4346.6
       103.42      4503.98
      103.277      4667.04
      103.134      4835.98
      102.991      5011.01
      102.848      5192.34
      102.705      5380.21
      102.562      5574.85
      102.419      5776.51
      102.276      5985.42
      102.133      6201.86
       101.99       6426.1
      101.847      6658.41
      101.704      6899.08
      101.561      7148.42
      101.418      7406.72
      101.275      7674.33
      101.132      7951.56
      100.989      8238.76
      100.846       8536.3
      100.703      8844.53
      100.561      9163.85
      100.418      9494.64
      100.275      9837.33
      100.132      10192.3
      99.9887      10560.1
      99.8457      10941.1
      99.7028      11335.7
      99.5598      11744.6
      99.4169      12168.1
      99.2739      12606.8
       99.131      13061.3
       98.988        13532
       98.845      14019.7
      98.7021      14524.9
      98.5591      15048.2
      98.4162      15590.3
      98.2732      16151.8
      98.1303      16733.5
      97.9873        17336
      97.8444      17960.1
      97.7014      18606.6
      97.5584      19276.2
      97.4155      19969.9
      97.2725      20688.4
      97.1296      21432.6
      96.9866      22203.5
      96.8437        23002
      96.7007      23829.1
      96.5578      24685.7
      96.4148      25573.1
      96.2718      26492.2
      96.1289      27444.2
      95.9859      28430.3
       95.843      29451.6
         95.7      30509.4
      95.5571      31605.1
      95.4141        32740
      95.2712      33915.4
      95.1282      35132.8
      94.9853      36393.7
      94.8423      37699.7
      94.6993      39052.3
      94.5564      40453.3
      94.4134      41904.2
      94.2705        43407
      94.1275      44963.4
      93.9846      46575.4
      93.8416      48244.9
      93.6987        49974
      93.5557      51764.8
      93.4127      53619.4
      93.2698      55540.2
      93.1268      57529.5
      92.9839      59589.7
      92.8409      61723.3
       92.698        63933
       92.555      66221.4
      92.4121      68591.3
      92.2691      71045.7
      92.1261      73587.5
      91.9832      76219.8
      91.8402      78945.8
      91.6973      81768.8
      91.5543      84692.3
      91.4114      87719.9
      91.2684      90855.2
      91.1255        94102
      90.9825      97464.3
      90.8395       100946
      90.6966       104552
      90.5536       108286
      90.4107       112152
      90.2677       116156
      90.1248       120302
      89.9818       124596
      89.8389       129042
      89.6959       133646
      89.5529       138413
        89.41       143350
       89.267       148462
      89.1241       153755
      88.9811       159236
      88.8382       164912
      88.6952       170788
      88.5523       176874
      88.4093       183175
      88.2663       189699
      88.1234       196454
      87.9804       203449
      87.8375       210692
      87.6945       218192
      87.5516       225957
      87.4086       233997
      87.2657       242322
      87.1227       250941
      86.9798       259865
      86.8368       269106
      86.6938       278673
      86.5509       288579
      86.4079       298835
       86.265       309453
       86.122       320448
      85.9791       331830
      85.8361       343615
      85.6932       355817
      85.5502       368449
      85.4072       381528
      85.2643       395069
      85.1213       409088
      84.9784       423602
      84.8354       438628
      84.6925       454184
      84.5495       470290
      84.4066       486963
      84.2636       504225
      84.1206       522095
      83.9777       540595
      83.8347       559748
      83.6918       579576
      83.5488       600102
      83.4059       621352
      83.2629       643350
        83.12       666123
       82.977       689698
       82.834       714102
      82.6911       739366
      82.5481       765519
      82.4052       792592
      82.2622       820618
      82.1193       849630
      81.9763       879661
      81.8334       910749
      81.6904       942929
      81.5474       976241
      81.4045  1.01072e+06
      81.2615  1.04642e+06
      81.1186  1.08336e+06
      80.9756  1.12161e+06
      80.8327   1.1612e+06
      80.6897  1.20217e+06
      80.5468  1.24459e+06
      80.4038  1.28849e+06
      80.2608  1.33394e+06
      80.1179  1.38098e+06
      79.9749  1.42967e+06
       79.832  1.48006e+06
       79.689  1.53223e+06
      79.5461  1.58622e+06
      79.4031   1.6421e+06
      79.2602  1.69994e+06
      79.1172  1.75981e+06
      78.9743  1.82177e+06
      78.8313  1.88591e+06
      78.6883  1.95229e+06
      78.5454  2.02099e+06
      78.4024   2.0921e+06
      78.2595   2.1657e+06
      78.1165  2.24187e+06
      77.9736   2.3207e+06
      77.8306  2.40229e+06
      77.6877  2.48674e+06
      77.5447  2.57413e+06
      77.4017  2.66459e+06
      77.2588   2.7582e+06
      77.1158  2.85508e+06
      76.9729  2.95534e+06
      76.8299  3.05911e+06
       76.687   3.1665e+06
       76.544  3.27764e+06
      76.4011  3.39265e+06
      76.2581  3.51168e+06
      76.1151  3.63486e+06
      75.9722  3.76234e+06
      75.8292  3.89427e+06
      75.6863  4.03079e+06
      75.5433  4.17207e+06
      75.4004  4.31828e+06
      75.2574  4.46958e+06
      75.1145  4.62615e+06
      74.9715  4.78817e+06
      74.8285  4.95584e+06
      74.6856  5.12934e+06
      74.5426  5.30888e+06
      74.3997  5.49467e+06
      74.2567  5.68692e+06
      74.1138  5.88586e+06
      73.9708  6.09172e+06
      73.8279  6.30474e+06
      73.6849  6.52516e+06
      73.5419  6.75325e+06
       73.399  6.98926e+06
       73.256  7.23346e+06
      73.1131  7.48615e+06
      72.9701  7.74762e+06
      72.8272  8.01816e+06
      72.6842   8.2981e+06
      72.5413  8.58775e+06
      72.3983  8.88745e+06
      72.2554  9.19755e+06
      72.1124   9.5184e+06
      71.9694  9.85037e+06
      71.8265  1.01939e+07
      71.6835  1.05493e+07
      71.5406   1.0917e+07
      71.3976  1.12974e+07
      71.2547   1.1691e+07
      71.1117  1.20983e+07
      70.9688  1.25196e+07
      70.8258  1.29556e+07
      70.6828  1.34066e+07
      70.5399  1.38732e+07
      70.3969   1.4356e+07
       70.254  1.48555e+07
       70.111  1.53722e+07
      69.9681  1.59068e+07
      69.8251  1.64599e+07
      69.6822  1.70321e+07
      69.5392  1.76241e+07
      69.3962  1.82365e+07
      69.2533  1.88701e+07
      69.1103  1.95255e+07
      68.9674  2.02035e+07
      68.8244   2.0905e+07
      68.6815  2.16306e+07
      68.5385  2.23813e+07
      68.3956  2.31579e+07
      68.2526  2.39613e+07
      68.1096  2.47923e+07
      67.9667   2.5652e+07
      67.8237  2.65413e+07
      67.6808  2.74612e+07
      67.5378  2.84128e+07
      67.3949  2.93972e+07
      67.2519  3.04155e+07
       67.109  3.14688e+07
       66.966  3.25584e+07
       66.823  3.36854e+07
      66.6801  3.48512e+07
      66.5371  3.60571e+07
      66.3942  3.73044e+07
      66.2512  3.85946e+07
      66.1083  3.99292e+07
      65.9653  4.13096e+07
      65.8224  4.27374e+07
      65.6794  4.42142e+07
      65.5364  4.57417e+07
      65.3935  4.73217e+07
      65.2505  4.89558e+07
      65.1076  5.06461e+07
      64.9646  5.23943e+07
      64.8217  5.42024e+07
      64.6787  5.60725e+07
      64.5358  5.80068e+07
      64.3928  6.00073e+07
      64.2499  6.20763e+07
      64.1069  6.42162e+07
      63.9639  6.64293e+07
       63.821  6.87183e+07
       63.678  7.10855e+07
      63.5351  7.35338e+07
      63.3921  7.60658e+07
      63.2492  7.86844e+07
      63.1062  8.13925e+07
      62.9633  8.41933e+07
      62.8203  8.70897e+07
      62.6773  9.00851e+07
      62.5344  9.31828e+07
      62.3914  9.63863e+07
      62.2485  9.96992e+07
      62.1055  1.03125e+08
      61.9626  1.06668e+08
      61.8196  1.10332e+08
      61.6767   1.1412e+08
      61.5337  1.18038e+08
      61.3907   1.2209e+08
      61.2478  1.26279e+08
      61.1048  1.30612e+08
      60.9619  1.35092e+08
      60.8189  1.39724e+08
       60.676  1.44515e+08
       60.533  1.49468e+08
      60.3901   1.5459e+08
      60.2471  1.59886e+08
      60.1041  1.65362e+08
      59.9612  1.71025e+08
      59.8182   1.7688e+08
      59.6753  1.82934e+08
      59.5323  1.89194e+08
      59.3894  1.95667e+08
      59.2464  2.02359e+08
      59.1035  2.09279e+08
      58.9605  2.16433e+08
      58.8175  2.23831e+08
      58.6746  2.31479e+08
      58.5316  2.39387e+08
      58.3887  2.47563e+08
      58.2457  2.56016e+08
      58.1028  2.64756e+08
      57.9598  2.73792e+08
      57.8169  2.83134e+08
      57.6739  2.92792e+08
      57.5309  3.02778e+08
       57.388  3.13101e+08
       57.245  3.23774e+08
      57.1021  3.34808e+08
      56.9591  3.46216e+08
      56.8162  3.58009e+08
      56.6732  3.70201e+08
      56.5303  3.82804e+08
      56.3873  3.95834e+08
      56.2444  4.09304e+08
      56.1014  4.23229e+08
      55.9584  4.37624e+08
      55.8155  4.52505e+08
      55.6725  4.67888e+08
      55.5296   4.8379e+08
      55.3866  5.00229e+08
      55.2437  5.17222e+08
      55.1007  5.34787e+08
      54.9578  5.52945e+08
      54.8148  5.71714e+08
      54.6718  5.91116e+08
      54.5289  6.11171e+08
      54.3859  6.31901e+08
       54.243  6.53329e+08
         54.1  6.75478e+08
      53.9571  6.98371e+08
      53.8141  7.22035e+08
      53.6712  7.46494e+08
      53.5282  7.71776e+08
      53.3852  7.97907e+08
      53.2423  8.24915e+08
      53.0993  8.52831e+08
      52.9564  8.81684e+08
      52.8134  9.11505e+08
      52.6705  9.42327e+08
      52.5275  9.74183e+08
      52.3846  1.00711e+09
      52.2416  1.04114e+09
      52.0986   1.0763e+09
      51.9557  1.11265e+09
      51.8127  1.15022e+09
      51.6698  1.18904e+09
      51.5268  1.22916e+09
      51.3839  1.27063e+09
      51.2409  1.31348e+09
       51.098  1.35777e+09
       50.955  1.40353e+09
       50.812  1.45083e+09
      50.6691  1.49971e+09
      50.5261  1.55022e+09
      50.3832  1.60242e+09
      50.2402  1.65636e+09
      50.0973  1.71211e+09
      49.9543  1.76971e+09
      49.8114  1.82923e+09
      49.6684  1.89075e+09
      49.5255  1.95431e+09
      49.3825  2.01999e+09
      49.2395  2.08786e+09
      49.0966  2.15799e+09
      48.9536  2.23046e+09
      48.8107  2.30534e+09
      48.6677  2.38271e+09
      48.5248  2.46266e+09
      48.3818  2.54527e+09
      48.2389  2.63062e+09
      48.0959  2.71881e+09
      47.9529  2.80994e+09
        47.81  2.90409e+09
       47.667  3.00137e+09
      47.5241  3.10188e+09
      47.3811  3.20573e+09
      47.2382  3.31302e+09
      47.0952  3.42388e+09
      46.9523  3.53841e+09
      46.8093  3.65674e+09
      46.6663  3.77899e+09
      46.5234  3.90529e+09
      46.3804  4.03578e+09
      46.2375  4.17059e+09
      46.0945  4.30986e+09
      45.9516  4.45375e+09
      45.8086  4.60239e+09
      45.6657  4.75595e+09
      45.5227  4.91459e+09
      45.3797  5.07847e+09
      45.2368  5.24777e+09
      45.0938  5.42266e+09
      44.9509  5.60333e+09
      44.8079  5.78996e+09
       44.665  5.98276e+09
       44.522  6.18191e+09
      44.3791  6.38764e+09
      44.2361  6.60015e+09
      44.0931  6.81966e+09
      43.9502  7.04641e+09
      43.8072  7.28063e+09
      43.6643  7.52257e+09
      43.5213  7.77247e+09
      43.3784  8.03059e+09
      43.2354  8.29721e+09
      43.0925   8.5726e+09
      42.9495  8.85704e+09
      42.8065  9.15083e+09
      42.6636  9.45428e+09
      42.5206   9.7677e+09
      42.3777  1.00914e+10
      42.2347  1.04257e+10
      42.0918  1.07711e+10
      41.9488  1.11277e+10
      41.8059   1.1496e+10
      41.6629  1.18764e+10
        41.52  1.22693e+10
       41.377  1.26751e+10
       41.234  1.30941e+10
      41.0911  1.35269e+10
      40.9481  1.39738e+10
      40.8052  1.44354e+10
      40.6622   1.4912e+10
      40.5193  1.54043e+10
      40.3763  1.59126e+10
      40.2334  1.64375e+10
