Temperature = 1206.37K
THERMAL DISTRIBUTIONS:
  E, kcal/mol           W1
      109.381  0.000131138
      109.238  0.000138153
      109.095  0.000145543
      108.952  0.000153327
      108.809  0.000161527
      108.666  0.000170165
      108.523  0.000179263
       108.38  0.000188847
      108.237  0.000198943
      108.094  0.000209577
      107.951  0.000220779
      107.808  0.000232578
      107.665  0.000245007
      107.522  0.000258099
      107.379  0.000271889
      107.237  0.000286414
      107.094  0.000301714
      106.951  0.000317829
      106.808  0.000334804
      106.665  0.000352684
      106.522  0.000371516
      106.379  0.000391353
      106.236  0.000412246
      106.093  0.000434253
       105.95  0.000457433
      105.807  0.000481847
      105.664  0.000507562
      105.521  0.000534646
      105.378  0.000563173
      105.235   0.00059322
      105.092  0.000624866
      104.949  0.000658197
      104.806  0.000693303
      104.663  0.000730278
       104.52   0.00076922
      104.377  0.000810236
      104.234  0.000853433
      104.092   0.00089893
      103.949  0.000946847
      103.806  0.000997314
      103.663   0.00105047
       103.52   0.00110644
      103.377    0.0011654
      103.234   0.00122749
      103.091   0.00129288
      102.948   0.00136175
      102.805   0.00143428
      102.662   0.00151067
      102.519   0.00159111
      102.376   0.00167584
      102.233   0.00176506
       102.09   0.00185903
      101.947   0.00195798
      101.804    0.0020622
      101.661   0.00217195
      101.518   0.00228753
      101.375   0.00240925
      101.232   0.00253743
      101.089   0.00267242
      100.946   0.00281457
      100.804   0.00296427
      100.661   0.00312192
      100.518   0.00328793
      100.375   0.00346276
      100.232   0.00364686
      100.089   0.00384073
      99.9458   0.00404488
      99.8028   0.00425987
      99.6599   0.00448626
      99.5169   0.00472465
       99.374   0.00497569
       99.231   0.00524004
      99.0881    0.0055184
      98.9451   0.00581153
      98.8022   0.00612019
      98.6592    0.0064452
      98.5162   0.00678745
      98.3733   0.00714783
      98.2303    0.0075273
      98.0874   0.00792688
      97.9444   0.00834763
      97.8015   0.00879066
      97.6585   0.00925716
      97.5156   0.00974836
      97.3726    0.0102656
      97.2296    0.0108102
      97.0867    0.0113836
      96.9437    0.0119874
      96.8008    0.0126231
      96.6578    0.0132925
      96.5149    0.0139973
      96.3719    0.0147394
       96.229    0.0155208
       96.086    0.0163435
      95.9431    0.0172097
      95.8001    0.0181217
      95.6571    0.0190819
      95.5142    0.0200929
      95.3712    0.0211574
      95.2283    0.0222782
      95.0853    0.0234582
      94.9424    0.0247005
      94.7994    0.0260085
      94.6565    0.0273857
      94.5135    0.0288355
      94.3705     0.030362
      94.2276    0.0319691
      94.0846    0.0336612
      93.9417    0.0354425
      93.7987    0.0373179
      93.6558    0.0392924
      93.5128    0.0413711
      93.3699    0.0435595
      93.2269    0.0458634
      93.0839     0.048289
       92.941    0.0508425
       92.798    0.0535307
      92.6551    0.0563608
      92.5121    0.0593402
      92.3692    0.0624767
      92.2262    0.0657786
      92.0833    0.0692547
      91.9403    0.0729141
      91.7973    0.0767663
      91.6544    0.0808217
      91.5114    0.0850908
      91.3685    0.0895849
      91.2255    0.0943159
      91.0826    0.0992961
      90.9396     0.104539
      90.7967     0.110058
      90.6537     0.115867
      90.5107     0.121983
      90.3678      0.12842
      90.2248     0.135197
      90.0819      0.14233
      89.9389     0.149839
       89.796     0.157743
       89.653     0.166063
      89.5101      0.17482
      89.3671     0.184039
      89.2242     0.193743
      89.0812     0.203957
      88.9382     0.214708
      88.7953     0.226025
      88.6523     0.237937
      88.5094     0.250475
      88.3664     0.263673
      88.2235     0.277564
      88.0805     0.292186
      87.9376     0.307576
      87.7946     0.323774
      87.6516     0.340824
      87.5087     0.358769
      87.3657     0.377658
      87.2228     0.397538
      87.0798     0.418462
      86.9369     0.440485
      86.7939     0.463665
       86.651     0.488061
       86.508     0.513738
       86.365     0.540763
      86.2221     0.569206
      86.0791     0.599142
      85.9362     0.630648
      85.7932     0.663807
      85.6503     0.698705
      85.5073     0.735433
      85.3644     0.774088
      85.2214      0.81477
      85.0784     0.857584
      84.9355     0.902643
      84.7925     0.950064
      84.6496      0.99997
      84.5066      1.05249
      84.3637      1.10776
      84.2207      1.16593
      84.0778      1.22715
      83.9348      1.29157
      83.7918      1.35937
      83.6489      1.43071
      83.5059      1.50579
       83.363      1.58481
        83.22      1.66795
      83.0771      1.75545
      82.9341      1.84753
      82.7912      1.94443
      82.6482       2.0464
      82.5052       2.1537
      82.3623      2.26661
      82.2193      2.38542
      82.0764      2.51045
      81.9334      2.64202
      81.7905      2.78047
      81.6475      2.92615
      81.5046      3.07945
      81.3616      3.24075
      81.2187      3.41049
      81.0757      3.58909
      80.9327      3.77702
      80.7898      3.97477
      80.6468      4.18285
      80.5039      4.40179
      80.3609      4.63216
       80.218      4.87456
       80.075      5.12961
      79.9321      5.39797
      79.7891      5.68034
      79.6461      5.97743
      79.5032      6.29003
      79.3602      6.61894
      79.2173        6.965
      79.0743       7.3291
      78.9314      7.71219
      78.7884      8.11525
      78.6455      8.53933
      78.5025       8.9855
      78.3595      9.45493
      78.2166      9.94882
      78.0736      10.4684
      77.9307      11.0151
      77.7877      11.5903
      77.6448      12.1954
      77.5018      12.8321
      77.3589      13.5018
      77.2159      14.2065
      77.0729      14.9478
        76.93      15.7277
       76.787      16.5482
      76.6441      17.4114
      76.5011      18.3195
      76.3582      19.2748
      76.2152      20.2798
      76.0723      21.3371
      75.9293      22.4493
      75.7863      23.6194
      75.6434      24.8503
      75.5004      26.1451
      75.3575      27.5073
      75.2145      28.9402
      75.0716      30.4476
      74.9286      32.0333
      74.7857      33.7013
      74.6427       35.456
      74.4997      37.3017
      74.3568      39.2433
      74.2138      41.2857
      74.0709      43.4341
      73.9279       45.694
       73.785      48.0711
       73.642      50.5716
      73.4991      53.2017
      73.3561      55.9683
      73.2132      58.8784
      73.0702      61.9393
      72.9272      65.1589
      72.7843      68.5455
      72.6413      72.1075
      72.4984      75.8542
      72.3554      79.7949
      72.2125      83.9399
      72.0695      88.2995
      71.9266      92.8849
      71.7836      97.7078
      71.6406       102.78
      71.4977      108.116
      71.3547      113.727
      71.2118      119.629
      71.0688      125.836
      70.9259      132.364
      70.7829       139.23
        70.64      146.452
       70.497      154.046
       70.354      162.034
      70.2111      170.434
      70.0681      179.269
      69.9252       188.56
      69.7822      198.332
      69.6393      208.608
      69.4963      219.415
      69.3534      230.781
      69.2104      242.733
      69.0674      255.303
      68.9245      268.522
      68.7815      282.424
      68.6386      297.042
      68.4956      312.416
      68.3527      328.583
      68.2097      345.583
      68.0668      363.461
      67.9238      382.261
      67.7808      402.031
      67.6379       422.82
      67.4949      444.681
       67.352      467.668
       67.209      491.841
      67.0661      517.259
      66.9231      543.987
      66.7802      572.092
      66.6372      601.644
      66.4943      632.719
      66.3513      665.394
      66.2083      699.751
      66.0654      735.876
      65.9224      773.861
      65.7795      813.801
      65.6365      855.796
      65.4936      899.951
      65.3506      946.378
      65.2077      995.193
      65.0647      1046.52
      64.9217      1100.48
      64.7788      1157.22
      64.6358      1216.87
      64.4929      1279.59
      64.3499      1345.53
       64.207      1414.86
       64.064      1487.75
      63.9211      1564.39
      63.7781      1644.96
      63.6351      1729.67
      63.4922      1818.72
      63.3492      1912.35
      63.2063      2010.78
      63.0633      2114.26
      62.9204      2223.05
      62.7774      2337.42
      62.6345      2457.65
      62.4915      2584.05
      62.3485      2716.93
      62.2056      2856.62
      62.0626      3003.47
      61.9197      3157.85
      61.7767      3320.14
      61.6338      3490.74
      61.4908      3670.07
      61.3479      3858.59
      61.2049      4056.77
      61.0619      4265.09
       60.919      4484.07
       60.776      4714.26
      60.6331      4956.23
      60.4901      5210.57
      60.3472      5477.93
      60.2042      5758.96
      60.0613      6054.36
      59.9183      6364.86
      59.7753      6691.23
      59.6324      7034.29
      59.4894      7394.87
      59.3465      7773.88
      59.2035      8172.25
      59.0606      8590.97
      58.9176      9031.07
      58.7747      9493.64
      58.6317      9979.82
      58.4888      10490.8
      58.3458      11027.9
      58.2028      11592.4
      58.0599      12185.6
      57.9169      12809.2
       57.774      13464.5
       57.631      14153.3
      57.4881      14877.1
      57.3451      15637.9
      57.2022      16437.4
      57.0592      17277.7
      56.9162      18160.7
      56.7733      19088.8
      56.6303      20064.1
      56.4874      21089.1
      56.3444      22166.2
      56.2015      23298.2
      56.0585      24487.8
      55.9156      25737.9
      55.7726      27051.7
      55.6296      28432.2
      55.4867        29883
      55.3437      31407.5
      55.2008      33009.5
      55.0578        34693
      54.9149        36462
      54.7719      38320.9
       54.629      40274.2
       54.486      42326.7
       54.343      44483.5
      54.2001      46749.8
      54.0571      49131.1
      53.9142      51633.3
      53.7712      54262.5
      53.6283      57025.1
      53.4853      59927.8
      53.3424      62977.8
      53.1994      66182.4
      53.0564      69549.5
      52.9135      73087.3
      52.7705      76804.4
      52.6276      80709.8
      52.4846      84813.2
      52.3417      89124.4
      52.1987      93653.9
      52.0558      98412.8
      51.9128       103413
      51.7698       108665
      51.6269       114184
      51.4839       119982
       51.341       126074
       51.198       132473
      51.0551       139196
      50.9121       146259
      50.7692       153679
      50.6262       161474
      50.4833       169663
      50.3403       178266
      50.1973       187303
      50.0544       196796
      49.9114       206769
      49.7685       217246
      49.6255       228251
      49.4826       239812
      49.3396       251956
      49.1967       264713
      49.0537       278113
      48.9107       292189
      48.7678       306974
      48.6248       322505
      48.4819       338819
      48.3389       355954
       48.196       373953
       48.053       392859
      47.9101       412716
      47.7671       433573
      47.6241       455481
      47.4812       478490
      47.3382       502658
      47.1953       528042
      47.0523       554702
      46.9094       582703
      46.7664       612112
      46.6235       643000
      46.4805       675439
      46.3375       709509
      46.1946       745291
      46.0516       782870
      45.9087       822336
      45.7657       863784
      45.6228       907312
      45.4798       953025
      45.3369  1.00103e+06
      45.1939  1.05145e+06
      45.0509  1.10439e+06
       44.908  1.15999e+06
       44.765  1.21838e+06
      44.6221  1.27969e+06
      44.4791  1.34408e+06
      44.3362  1.41169e+06
      44.1932  1.48269e+06
      44.0503  1.55725e+06
      43.9073  1.63554e+06
      43.7643  1.71775e+06
      43.6214  1.80408e+06
      43.4784  1.89472e+06
      43.3355   1.9899e+06
      43.1925  2.08984e+06
      43.0496  2.19479e+06
      42.9066  2.30497e+06
      42.7637  2.42067e+06
      42.6207  2.54215e+06
      42.4778   2.6697e+06
      42.3348  2.80363e+06
      42.1918  2.94424e+06
      42.0489  3.09188e+06
      41.9059  3.24688e+06
       41.763  3.40963e+06
        41.62   3.5805e+06
      41.4771  3.75989e+06
      41.3341  3.94824e+06
      41.1912  4.14597e+06
      41.0482  4.35357e+06
      40.9052  4.57152e+06
      40.7623  4.80033e+06
      40.6193  5.04055e+06
      40.4764  5.29273e+06
      40.3334  5.55748e+06
      40.1905  5.83541e+06
      40.0475  6.12718e+06
      39.9046  6.43347e+06
      39.7616  6.75501e+06
      39.6186  7.09254e+06
      39.4757  7.44687e+06
      39.3327  7.81882e+06
      39.1898  8.20927e+06
      39.0468  8.61913e+06
      38.9039  9.04935e+06
      38.7609  9.50096e+06
       38.618  9.97501e+06
       38.475  1.04726e+07
       38.332  1.09949e+07
      38.1891  1.15431e+07
      38.0461  1.21186e+07
      37.9032  1.27226e+07
      37.7602  1.33565e+07
      37.6173   1.4022e+07
      37.4743  1.47204e+07
      37.3314  1.54534e+07
      37.1884  1.62228e+07
      37.0454  1.70303e+07
      36.9025  1.78778e+07
      36.7595  1.87673e+07
      36.6166  1.97009e+07
      36.4736  2.06806e+07
      36.3307  2.17089e+07
      36.1877  2.27881e+07
      36.0448  2.39206e+07
      35.9018  2.51092e+07
      35.7589  2.63566e+07
      35.6159  2.76656e+07
      35.4729  2.90393e+07
        35.33   3.0481e+07
       35.187  3.19939e+07
      35.0441  3.35815e+07
      34.9011  3.52475e+07
      34.7582  3.69957e+07
      34.6152  3.88303e+07
      34.4723  4.07554e+07
      34.3293  4.27755e+07
      34.1863  4.48952e+07
      34.0434  4.71195e+07
      33.9004  4.94534e+07
      33.7575  5.19024e+07
      33.6145   5.4472e+07
      33.4716  5.71683e+07
      33.3286  5.99973e+07
      33.1857  6.29657e+07
      33.0427  6.60802e+07
      32.8997   6.9348e+07
      32.7568  7.27767e+07
      32.6138   7.6374e+07
      32.4709  8.01482e+07
      32.3279   8.4108e+07
       32.185  8.82625e+07
       32.042  9.26212e+07
      31.8991   9.7194e+07
      31.7561  1.01991e+08
      31.6131  1.07025e+08
      31.4702  1.12305e+08
      31.3272  1.17844e+08
      31.1843  1.23655e+08
      31.0413  1.29752e+08
      30.8984  1.36147e+08
      30.7554  1.42856e+08
      30.6125  1.49894e+08
      30.4695  1.57277e+08
      30.3265  1.65022e+08
      30.1836  1.73146e+08
      30.0406  1.81667e+08
      29.8977  1.90607e+08
      29.7547  1.99983e+08
      29.6118  2.09819e+08
      29.4688  2.20136e+08
      29.3259  2.30957e+08
      29.1829  2.42308e+08
      29.0399  2.54213e+08
       28.897  2.66701e+08
       28.754  2.79798e+08
      28.6111  2.93536e+08
      28.4681  3.07944e+08
      28.3252  3.23056e+08
      28.1822  3.38905e+08
      28.0393  3.55528e+08
      27.8963  3.72962e+08
      27.7534  3.91246e+08
      27.6104  4.10421e+08
      27.4674  4.30532e+08
      27.3245  4.51622e+08
      27.1815   4.7374e+08
      27.0386  4.96936e+08
      26.8956   5.2126e+08
      26.7527  5.46769e+08
      26.6097   5.7352e+08
      26.4668  6.01572e+08
      26.3238  6.30988e+08
      26.1808  6.61835e+08
      26.0379  6.94182e+08
      25.8949  7.28101e+08
       25.752  7.63668e+08
       25.609  8.00962e+08
      25.4661  8.40068e+08
      25.3231  8.81073e+08
      25.1802  9.24067e+08
      25.0372  9.69148e+08
      24.8942  1.01642e+09
      24.7513  1.06598e+09
      24.6083  1.11794e+09
      24.4654  1.17242e+09
      24.3224  1.22954e+09
      24.1795  1.28943e+09
      24.0365  1.35222e+09
      23.8936  1.41804e+09
      23.7506  1.48706e+09
      23.6076  1.55941e+09
      23.4647  1.63527e+09
      23.3217  1.71479e+09
      23.1788  1.79815e+09
      23.0358  1.88555e+09
      22.8929  1.97717e+09
      22.7499  2.07321e+09
       22.607   2.1739e+09
       22.464  2.27944e+09
       22.321  2.39008e+09
      22.1781  2.50605e+09
      22.0351  2.62762e+09
      21.8922  2.75505e+09
      21.7492  2.88862e+09
      21.6063  3.02863e+09
      21.4633  3.17539e+09
      21.3204  3.32921e+09
      21.1774  3.49045e+09
      21.0344  3.65944e+09
      20.8915  3.83656e+09
      20.7485  4.02221e+09
      20.6056  4.21678e+09
      20.4626  4.42071e+09
      20.3197  4.63444e+09
      20.1767  4.85843e+09
      20.0338  5.09319e+09
      19.8908  5.33922e+09
      19.7479  5.59706e+09
      19.6049  5.86728e+09
      19.4619  6.15046e+09
       19.319  6.44722e+09
       19.176  6.75821e+09
      19.0331  7.08411e+09
      18.8901  7.42562e+09
      18.7472   7.7835e+09
      18.6042  8.15851e+09
      18.4613  8.55147e+09
      18.3183  8.96324e+09
      18.1753  9.39472e+09
      18.0324  9.84682e+09
      17.8894  1.03206e+10
      17.7465  1.08169e+10
      17.6035   1.1337e+10
      17.4606  1.18819e+10
      17.3176  1.24529e+10
      17.1747  1.30511e+10
      17.0317  1.36779e+10
      16.8887  1.43345e+10
      16.7458  1.50225e+10
      16.6028  1.57433e+10
      16.4599  1.64984e+10
      16.3169  1.72895e+10
       16.174  1.81183e+10
       16.031  1.89866e+10
      15.8881  1.98961e+10
      15.7451   2.0849e+10
      15.6021  2.18472e+10
      15.4592  2.28929e+10
      15.3162  2.39882e+10
      15.1733  2.51357e+10
      15.0303  2.63376e+10
      14.8874  2.75966e+10
      14.7444  2.89154e+10
      14.6015  3.02968e+10
      14.4585  3.17437e+10
      14.3155  3.32592e+10
      14.1726  3.48467e+10
      14.0296  3.65093e+10
      13.8867  3.82507e+10
      13.7437  4.00746e+10
      13.6008  4.19849e+10
      13.4578  4.39855e+10
      13.3149  4.60809e+10
      13.1719  4.82753e+10
       13.029  5.05735e+10
       12.886  5.29804e+10
       12.743  5.55009e+10
      12.6001  5.81405e+10
      12.4571  6.09048e+10
      12.3142  6.37995e+10
      12.1712  6.68309e+10
      12.0283  7.00052e+10
      11.8853  7.33292e+10
      11.7424  7.68098e+10
      11.5994  8.04545e+10
      11.4564  8.42709e+10
      11.3135  8.82669e+10
      11.1705  9.24511e+10
      11.0276  9.68321e+10
      10.8846  1.01419e+11
      10.7417  1.06222e+11
      10.5987   1.1125e+11
      10.4558  1.16515e+11
      10.3128  1.22027e+11
      10.1698  1.27798e+11
      10.0269   1.3384e+11
      9.88393  1.40165e+11
      9.74098  1.46787e+11
      9.59802  1.53719e+11
      9.45507  1.60977e+11
      9.31211  1.68574e+11
      9.16916  1.76527e+11
       9.0262  1.84852e+11
      8.88325  1.93567e+11
      8.74029   2.0269e+11
      8.59733  2.12239e+11
      8.45438  2.22235e+11
      8.31142  2.32697e+11
      8.16847  2.43648e+11
      8.02551  2.55111e+11
      7.88256  2.67109e+11
       7.7396  2.79666e+11
      7.59665  2.92809e+11
      7.45369  3.06565e+11
      7.31074  3.20962e+11
      7.16778   3.3603e+11
      7.02483  3.51799e+11
      6.88187  3.68302e+11
      6.73892  3.85574e+11
      6.59596  4.03648e+11
        6.453  4.22563e+11
      6.31005  4.42357e+11
      6.16709  4.63071e+11
      6.02414  4.84747e+11
      5.88118  5.07429e+11
      5.73823  5.31164e+11
      5.59527  5.55999e+11
      5.45232  5.81986e+11
      5.30936  6.09178e+11
      5.16641   6.3763e+11
      5.02345  6.67399e+11
       4.8805  6.98546e+11
      4.73754  7.31135e+11
      4.59458  7.65231e+11
      4.45163  8.00903e+11
      4.30867  8.38224e+11
      4.16572  8.77269e+11
      4.02276  9.18118e+11
