Temperature = 1663.84K
THERMAL DISTRIBUTIONS:
  E, kcal/mol           W1
      145.743     0.117542
        145.6     0.121943
      145.457     0.126508
      145.314     0.131243
      145.171     0.136155
      145.028     0.141251
      144.885     0.146537
      144.742      0.15202
      144.599     0.157708
      144.456     0.163608
      144.313     0.169728
       144.17     0.176076
      144.028     0.182662
      143.885     0.189492
      143.742     0.196578
      143.599     0.203928
      143.456     0.211551
      143.313      0.21946
       143.17     0.227662
      143.027     0.236171
      142.884     0.244997
      142.741     0.254151
      142.598     0.263647
      142.455     0.273497
      142.312     0.283713
      142.169      0.29431
      142.026     0.305302
      141.883     0.316703
       141.74     0.328529
      141.597     0.340795
      141.454     0.353517
      141.311     0.366714
      141.168     0.380401
      141.025     0.394598
      140.882     0.409324
       140.74     0.424597
      140.597     0.440439
      140.454      0.45687
      140.311     0.473912
      140.168     0.491588
      140.025     0.509922
      139.882     0.528937
      139.739      0.54866
      139.596     0.569115
      139.453     0.590332
       139.31     0.612337
      139.167     0.635159
      139.024      0.65883
      138.881     0.683381
      138.738     0.708844
      138.595     0.735253
      138.452     0.762643
      138.309      0.79105
      138.166     0.820513
      138.023     0.851069
       137.88     0.882761
      137.737     0.915629
      137.595     0.949717
      137.452      0.98507
      137.309      1.02174
      137.166      1.05976
      137.023       1.0992
       136.88       1.1401
      136.737      1.18252
      136.594      1.22651
      136.451      1.27214
      136.308      1.31945
      136.165      1.36852
      136.022      1.41941
      135.879      1.47219
      135.736      1.52692
      135.593      1.58369
       135.45      1.64255
      135.307       1.7036
      135.164      1.76691
      135.021      1.83257
      134.878      1.90065
      134.735      1.97126
      134.592      2.04449
       134.45      2.12043
      134.307      2.19918
      134.164      2.28085
      134.021      2.36553
      133.878      2.45336
      133.735      2.54443
      133.592      2.63888
      133.449      2.73682
      133.306      2.83839
      133.163      2.94371
       133.02      3.05293
      132.877      3.16619
      132.734      3.28364
      132.591      3.40543
      132.448      3.53173
      132.305      3.66269
      132.162       3.7985
      132.019      3.93933
      131.876      4.08536
      131.733      4.23679
       131.59      4.39381
      131.447      4.55664
      131.304      4.72548
      131.162      4.90056
      131.019      5.08211
      130.876      5.27036
      130.733      5.46556
       130.59      5.66797
      130.447      5.87785
      130.304      6.09548
      130.161      6.32114
      130.018      6.55513
      129.875      6.79776
      129.732      7.04933
      129.589      7.31019
      129.446      7.58067
      129.303      7.86113
       129.16      8.15193
      129.017      8.45346
      128.874       8.7661
      128.731      9.09027
      128.588      9.42639
      128.445      9.77489
      128.302      10.1362
      128.159      10.5109
      128.017      10.8994
      127.874      11.3022
      127.731      11.7198
      127.588      12.1528
      127.445      12.6017
      127.302      13.0672
      127.159      13.5498
      127.016      14.0502
      126.873       14.569
       126.73      15.1069
      126.587      15.6646
      126.444      16.2429
      126.301      16.8424
      126.158      17.4639
      126.015      18.1083
      125.872      18.7764
      125.729      19.4691
      125.586      20.1873
      125.443      20.9318
        125.3      21.7038
      125.157      22.5041
      125.014      23.3338
      124.871       24.194
      124.729      25.0858
      124.586      26.0104
      124.443       26.969
        124.3      27.9627
      124.157       28.993
      124.014      30.0611
      123.871      31.1684
      123.728      32.3163
      123.585      33.5064
      123.442      34.7402
      123.299      36.0193
      123.156      37.3453
      123.013      38.7199
       122.87       40.145
      122.727      41.6223
      122.584      43.1539
      122.441      44.7416
      122.298      46.3875
      122.155      48.0937
      122.012      49.8625
      121.869      51.6962
      121.726       53.597
      121.584      55.5675
      121.441      57.6102
      121.298      59.7278
      121.155      61.9229
      121.012      64.1984
      120.869      66.5572
      120.726      69.0024
      120.583      71.5372
       120.44      74.1647
      120.297      76.8884
      120.154      79.7118
      120.011      82.6385
      119.868      85.6723
      119.725      88.8171
      119.582       92.077
      119.439       95.456
      119.296      98.9586
      119.153      102.589
       119.01      106.353
      118.867      110.254
      118.724      114.297
      118.581      118.489
      118.439      122.833
      118.296      127.337
      118.153      132.005
       118.01      136.843
      117.867      141.858
      117.724      147.056
      117.581      152.444
      117.438      158.029
      117.295      163.818
      117.152      169.818
      117.009      176.036
      116.866      182.482
      116.723      189.163
       116.58      196.088
      116.437      203.265
      116.294      210.704
      116.151      218.415
      116.008      226.406
      115.865      234.689
      115.722      243.274
      115.579      252.171
      115.436      261.393
      115.293      270.951
      115.151      280.857
      115.008      291.124
      114.865      301.765
      114.722      312.794
      114.579      324.224
      114.436       336.07
      114.293      348.348
       114.15      361.072
      114.007      374.259
      113.864      387.927
      113.721      402.091
      113.578      416.771
      113.435      431.985
      113.292      447.752
      113.149      464.093
      113.006      481.028
      112.863      498.578
       112.72      516.766
      112.577      535.616
      112.434       555.15
      112.291      575.394
      112.148      596.374
      112.006      618.115
      111.863      640.647
       111.72      663.996
      111.577      688.194
      111.434       713.27
      111.291      739.256
      111.148      766.185
      111.005      794.091
      110.862      823.011
      110.719      852.979
      110.576      884.034
      110.433      916.216
       110.29      949.565
      110.147      984.123
      110.004      1019.93
      109.861      1057.04
      109.718       1095.5
      109.575      1135.34
      109.432      1176.64
      109.289      1219.42
      109.146      1263.76
      109.003       1309.7
       108.86      1357.31
      108.718      1406.64
      108.575      1457.76
      108.432      1510.72
      108.289      1565.61
      108.146      1622.48
      108.003      1681.41
       107.86      1742.47
      107.717      1805.74
      107.574      1871.29
      107.431      1939.22
      107.288       2009.6
      107.145      2082.53
      107.002      2158.09
      106.859      2236.39
      106.716      2317.51
      106.573      2401.57
       106.43      2488.66
      106.287       2578.9
      106.144       2672.4
      106.001      2769.27
      105.858      2869.64
      105.715      2973.63
      105.573      3081.38
       105.43      3193.01
      105.287      3308.68
      105.144      3428.52
      105.001      3552.67
      104.858      3681.31
      104.715      3814.59
      104.572      3952.67
      104.429      4095.73
      104.286      4243.95
      104.143      4397.51
          104       4556.6
      103.857      4721.43
      103.714      4892.19
      103.571       5069.1
      103.428      5252.39
      103.285      5442.27
      103.142      5638.99
      102.999      5842.79
      102.856      6053.93
      102.713      6272.67
       102.57      6499.27
      102.428      6734.03
      102.285      6977.24
      102.142      7229.19
      101.999       7490.2
      101.856      7760.59
      101.713      8040.71
       101.57      8330.89
      101.427       8631.5
      101.284      8942.91
      101.141      9265.52
      100.998       9599.7
      100.855       9945.9
      100.712      10304.5
      100.569        10676
      100.426      11060.9
      100.283      11459.5
       100.14      11872.5
      99.9973      12300.2
      99.8543      12743.4
      99.7114      13202.4
      99.5684      13677.9
      99.4254      14170.4
      99.2825      14680.6
      99.1395      15209.1
      98.9966      15756.5
      98.8536      16323.5
      98.7107      16910.9
      98.5677      17519.3
      98.4248      18149.5
      98.2818      18802.3
      98.1388      19478.4
      97.9959      20178.8
      97.8529      20904.2
        97.71      21655.6
       97.567      22433.9
      97.4241        23240
      97.2811      24074.9
      97.1382      24939.8
      96.9952      25835.5
      96.8522      26763.3
      96.7093      27724.3
      96.5663      28719.6
      96.4234      29750.5
      96.2804      30818.2
      96.1375      31924.1
      95.9945      33069.5
      95.8516      34255.8
      95.7086      35484.4
      95.5656        36757
      95.4227      38074.9
      95.2797      39439.9
      95.1368      40853.7
      94.9938      42317.8
      94.8509      43834.2
      94.7079      45404.7
       94.565      47031.2
       94.422      48715.7
      94.2791      50460.3
      94.1361      52267.1
      93.9931      54138.2
      93.8502        56076
      93.7072      58082.9
      93.5643      60161.3
      93.4213      62313.7
      93.2784      64542.7
      93.1354      66851.2
      92.9925      69241.8
      92.8495      71717.5
      92.7065      74281.3
      92.5636      76936.3
      92.4206      79685.8
      92.2777      82533.1
      92.1347      85481.6
      91.9918        88535
      91.8488      91696.9
      91.7059      94971.3
      91.5629        98362
      91.4199       101873
       91.277       105509
       91.134       109274
      90.9911       113173
      90.8481       117210
      90.7052       121391
      90.5622       125720
      90.4193       130203
      90.2763       134844
      90.1333       139651
      89.9904       144628
      89.8474       149781
      89.7045       155117
      89.5615       160643
      89.4186       166364
      89.2756       172288
      89.1327       178422
      88.9897       184773
      88.8467       191350
      88.7038       198159
      88.5608       205209
      88.4179       212509
      88.2749       220067
       88.132       227893
       87.989       235996
      87.8461       244386
      87.7031       253072
      87.5602       262065
      87.4172       271377
      87.2742       281018
      87.1313       290999
      86.9883       301333
      86.8454       312033
      86.7024       323110
      86.5595       334579
      86.4165       346453
      86.2736       358746
      86.1306       371473
      85.9876       384649
      85.8447       398291
      85.7017       412413
      85.5588       427034
      85.4158       442171
      85.2729       457841
      85.1299       474064
       84.987       490859
       84.844       508246
       84.701       526246
      84.5581       544879
      84.4151       564170
      84.2722       584139
      84.1292       604812
      83.9863       626213
      83.8433       648367
      83.7004       671300
      83.5574       695041
      83.4144       719617
      83.2715       745057
      83.1285       771392
      82.9856       798654
      82.8426       826873
      82.6997       856084
      82.5567       886322
      82.4138       917623
      82.2708       950023
      82.1278       983560
      81.9849  1.01828e+06
      81.8419  1.05421e+06
       81.699  1.09141e+06
       81.556  1.12991e+06
      81.4131  1.16976e+06
      81.2701  1.21101e+06
      81.1272  1.25371e+06
      80.9842   1.2979e+06
      80.8412  1.34365e+06
      80.6983  1.39099e+06
      80.5553     1.44e+06
      80.4124  1.49072e+06
      80.2694  1.54323e+06
      80.1265  1.59757e+06
      79.9835  1.65381e+06
      79.8406  1.71202e+06
      79.6976  1.77227e+06
      79.5547  1.83463e+06
      79.4117  1.89917e+06
      79.2687  1.96597e+06
      79.1258  2.03511e+06
      78.9828  2.10667e+06
      78.8399  2.18072e+06
      78.6969  2.25737e+06
       78.554  2.33669e+06
       78.411  2.41879e+06
      78.2681  2.50375e+06
      78.1251  2.59169e+06
      77.9821  2.68269e+06
      77.8392  2.77687e+06
      77.6962  2.87434e+06
      77.5533  2.97522e+06
      77.4103  3.07961e+06
      77.2674  3.18764e+06
      77.1244  3.29945e+06
      76.9815  3.41515e+06
      76.8385  3.53489e+06
      76.6955   3.6588e+06
      76.5526  3.78703e+06
      76.4096  3.91973e+06
      76.2667  4.05705e+06
      76.1237  4.19915e+06
      75.9808  4.34621e+06
      75.8378  4.49838e+06
      75.6949  4.65586e+06
      75.5519  4.81881e+06
      75.4089  4.98743e+06
       75.266  5.16193e+06
       75.123  5.34249e+06
      74.9801  5.52933e+06
      74.8371  5.72266e+06
      74.6942  5.92272e+06
      74.5512  6.12973e+06
      74.4083  6.34393e+06
      74.2653  6.56558e+06
      74.1223  6.79492e+06
      73.9794  7.03223e+06
      73.8364  7.27778e+06
      73.6935  7.53185e+06
      73.5505  7.79474e+06
      73.4076  8.06675e+06
      73.2646  8.34819e+06
      73.1217   8.6394e+06
      72.9787   8.9407e+06
      72.8357  9.25245e+06
      72.6928  9.57501e+06
      72.5498  9.90874e+06
      72.4069   1.0254e+07
      72.2639  1.06113e+07
       72.121  1.09809e+07
       71.978  1.13634e+07
      71.8351   1.1759e+07
      71.6921  1.21684e+07
      71.5492  1.25919e+07
      71.4062  1.30301e+07
      71.2632  1.34834e+07
      71.1203  1.39524e+07
      70.9773  1.44376e+07
      70.8344  1.49396e+07
      70.6914   1.5459e+07
      70.5485  1.59962e+07
      70.4055  1.65521e+07
      70.2626  1.71271e+07
      70.1196   1.7722e+07
      69.9766  1.83374e+07
      69.8337  1.89741e+07
      69.6907  1.96327e+07
      69.5478  2.03141e+07
      69.4048  2.10189e+07
      69.2619  2.17481e+07
      69.1189  2.25024e+07
       68.976  2.32827e+07
       68.833  2.40898e+07
        68.69  2.49248e+07
      68.5471  2.57886e+07
      68.4041   2.6682e+07
      68.2612  2.76063e+07
      68.1182  2.85623e+07
      67.9753  2.95513e+07
      67.8323  3.05743e+07
      67.6894  3.16324e+07
      67.5464   3.2727e+07
      67.4034  3.38592e+07
      67.2605  3.50303e+07
      67.1175  3.62416e+07
      66.9746  3.74946e+07
      66.8316  3.87906e+07
      66.6887  4.01311e+07
      66.5457  4.15177e+07
      66.4028  4.29518e+07
      66.2598  4.44351e+07
      66.1168  4.59694e+07
      65.9739  4.75562e+07
      65.8309  4.91975e+07
       65.688  5.08951e+07
       65.545  5.26508e+07
      65.4021  5.44668e+07
      65.2591  5.63449e+07
      65.1162  5.82874e+07
      64.9732  6.02964e+07
      64.8302  6.23741e+07
      64.6873   6.4523e+07
      64.5443  6.67455e+07
      64.4014  6.90439e+07
      64.2584   7.1421e+07
      64.1155  7.38794e+07
      63.9725  7.64219e+07
      63.8296  7.90512e+07
      63.6866  8.17704e+07
      63.5437  8.45825e+07
      63.4007  8.74907e+07
      63.2577  9.04981e+07
      63.1148  9.36083e+07
      62.9718  9.68246e+07
      62.8289  1.00151e+08
      62.6859   1.0359e+08
       62.543  1.07147e+08
         62.4  1.10825e+08
      62.2571  1.14629e+08
      62.1141  1.18562e+08
      61.9711  1.22629e+08
      61.8282  1.26835e+08
      61.6852  1.31184e+08
      61.5423  1.35681e+08
      61.3993  1.40331e+08
      61.2564  1.45139e+08
      61.1134  1.50111e+08
      60.9705  1.55252e+08
      60.8275  1.60568e+08
      60.6845  1.66065e+08
      60.5416  1.71749e+08
      60.3986  1.77625e+08
      60.2557  1.83702e+08
      60.1127  1.89984e+08
      59.9698  1.96481e+08
      59.8268  2.03197e+08
      59.6839  2.10142e+08
      59.5409  2.17322e+08
      59.3979  2.24746e+08
       59.255  2.32421e+08
       59.112  2.40357e+08
      58.9691  2.48562e+08
      58.8261  2.57045e+08
      58.6832  2.65815e+08
      58.5402  2.74882e+08
      58.3973  2.84257e+08
      58.2543  2.93948e+08
      58.1113  3.03968e+08
      57.9684  3.14327e+08
      57.8254  3.25036e+08
      57.6825  3.36108e+08
      57.5395  3.47553e+08
      57.3966  3.59386e+08
      57.2536  3.71618e+08
      57.1107  3.84264e+08
      56.9677  3.97337e+08
      56.8248  4.10851e+08
      56.6818  4.24822e+08
      56.5388  4.39263e+08
      56.3959  4.54193e+08
      56.2529  4.69625e+08
        56.11  4.85579e+08
       55.967   5.0207e+08
      55.8241  5.19117e+08
      55.6811  5.36738e+08
      55.5382  5.54953e+08
      55.3952  5.73781e+08
      55.2522  5.93243e+08
      55.1093  6.13361e+08
      54.9663  6.34155e+08
      54.8234  6.55649e+08
      54.6804  6.77865e+08
      54.5375  7.00829e+08
      54.3945  7.24565e+08
      54.2516  7.49098e+08
      54.1086  7.74455e+08
      53.9656  8.00665e+08
      53.8227  8.27754e+08
      53.6797  8.55752e+08
      53.5368   8.8469e+08
      53.3938  9.14599e+08
      53.2509  9.45512e+08
      53.1079   9.7746e+08
       52.965  1.01048e+09
       52.822  1.04461e+09
       52.679  1.07988e+09
      52.5361  1.11633e+09
      52.3931    1.154e+09
      52.2502  1.19293e+09
      52.1072  1.23317e+09
      51.9643  1.27475e+09
      51.8213  1.31772e+09
      51.6784  1.36213e+09
      51.5354  1.40803e+09
      51.3924  1.45545e+09
      51.2495  1.50447e+09
      51.1065  1.55512e+09
      50.9636  1.60746e+09
      50.8206  1.66154e+09
      50.6777  1.71744e+09
      50.5347   1.7752e+09
      50.3918  1.83488e+09
      50.2488  1.89655e+09
      50.1058  1.96028e+09
      49.9629  2.02614e+09
      49.8199  2.09419e+09
       49.677   2.1645e+09
       49.534  2.23716e+09
      49.3911  2.31223e+09
      49.2481   2.3898e+09
      49.1052  2.46995e+09
      48.9622  2.55277e+09
      48.8193  2.63834e+09
      48.6763  2.72676e+09
      48.5333  2.81811e+09
      48.3904   2.9125e+09
      48.2474  3.01002e+09
      48.1045  3.11078e+09
      47.9615  3.21489e+09
      47.8186  3.32244e+09
      47.6756  3.43357e+09
      47.5327  3.54838e+09
      47.3897    3.667e+09
      47.2467  3.78954e+09
      47.1038  3.91615e+09
      46.9608  4.04695e+09
      46.8179  4.18208e+09
      46.6749  4.32168e+09
       46.532   4.4659e+09
       46.389   4.6149e+09
      46.2461  4.76882e+09
      46.1031  4.92783e+09
      45.9601  5.09209e+09
      45.8172  5.26178e+09
      45.6742  5.43707e+09
      45.5313  5.61815e+09
      45.3883  5.80521e+09
      45.2454  5.99845e+09
      45.1024  6.19805e+09
      44.9595  6.40424e+09
      44.8165  6.61723e+09
      44.6735  6.83723e+09
      44.5306  7.06448e+09
      44.3876  7.29922e+09
      44.2447  7.54169e+09
      44.1017  7.79214e+09
      43.9588  8.05083e+09
      43.8158  8.31803e+09
      43.6729  8.59401e+09
      43.5299  8.87907e+09
      43.3869  9.17349e+09
       43.244  9.47759e+09
       43.101  9.79168e+09
      42.9581  1.01161e+10
      42.8151  1.04511e+10
      42.6722  1.07972e+10
      42.5292  1.11545e+10
      42.3863  1.15236e+10
      42.2433  1.19049e+10
      42.1003  1.22985e+10
      41.9574  1.27051e+10
      41.8144   1.3125e+10
      41.6715  1.35587e+10
      41.5285  1.40065e+10
      41.3856   1.4469e+10
      41.2426  1.49467e+10
      41.0997  1.54399e+10
      40.9567  1.59492e+10
      40.8138  1.64752e+10
      40.6708  1.70184e+10
      40.5278  1.75793e+10
      40.3849  1.81585e+10
