Temperature = 619.437K
THERMAL DISTRIBUTIONS:
  E, kcal/mol           W1
      62.7259  4.39474e-14
       62.583   4.8894e-14
        62.44  5.43969e-14
      62.2971  6.05186e-14
      62.1541  6.73288e-14
      62.0112  7.49048e-14
      61.8682  8.33327e-14
      61.7253   9.2708e-14
      61.5823  1.03137e-13
      61.4393  1.14739e-13
      61.2964  1.27645e-13
      61.1534  1.42001e-13
      61.0105  1.57971e-13
      60.8675  1.75736e-13
      60.7246  1.95496e-13
      60.5816  2.17477e-13
      60.4387  2.41928e-13
      60.2957  2.69126e-13
      60.1528  2.99378e-13
      60.0098  3.33029e-13
      59.8668  3.70459e-13
      59.7239  4.12093e-13
      59.5809  4.58403e-13
       59.438  5.09912e-13
       59.295  5.67206e-13
      59.1521  6.30931e-13
      59.0091  7.01811e-13
      58.8662  7.80647e-13
      58.7232  8.68332e-13
      58.5802  9.65859e-13
      58.4373  1.07433e-12
      58.2943  1.19498e-12
      58.1514  1.32916e-12
      58.0084  1.47839e-12
      57.8655  1.64437e-12
      57.7225  1.82897e-12
      57.5796  2.03428e-12
      57.4366  2.26262e-12
      57.2936  2.51656e-12
      57.1507  2.79899e-12
      57.0077  3.11308e-12
      56.8648   3.4624e-12
      56.7218  3.85087e-12
      56.5789   4.2829e-12
      56.4359  4.76336e-12
       56.293  5.29768e-12
        56.15  5.89188e-12
       56.007  6.55268e-12
      55.8641  7.28753e-12
      55.7211  8.10472e-12
      55.5782  9.01348e-12
      55.4352   1.0024e-11
      55.2923  1.11478e-11
      55.1493  1.23975e-11
      55.0064  1.37871e-11
      54.8634  1.53324e-11
      54.7204  1.70507e-11
      54.5775  1.89615e-11
      54.4345  2.10862e-11
      54.2916  2.34487e-11
      54.1486  2.60758e-11
      54.0057   2.8997e-11
      53.8627  3.22451e-11
      53.7198  3.58567e-11
      53.5768  3.98726e-11
      53.4338  4.43379e-11
      53.2909  4.93028e-11
      53.1479  5.48232e-11
       53.005  6.09611e-11
       52.862  6.77858e-11
      52.7191  7.53738e-11
      52.5761  8.38105e-11
      52.4332  9.31907e-11
      52.2902   1.0362e-10
      52.1473  1.15215e-10
      52.0043  1.28107e-10
      51.8613   1.4244e-10
      51.7184  1.58376e-10
      51.5754  1.76093e-10
      51.4325  1.95789e-10
      51.2895  2.17688e-10
      51.1466  2.42033e-10
      51.0036  2.69099e-10
      50.8607  2.99189e-10
      50.7177   3.3264e-10
      50.5747  3.69829e-10
      50.4318  4.11171e-10
      50.2888  4.57131e-10
      50.1459  5.08224e-10
      50.0029  5.65022e-10
        49.86  6.28163e-10
       49.717  6.98353e-10
      49.5741   7.7638e-10
      49.4311  8.63117e-10
      49.2881  9.59535e-10
      49.1452  1.06672e-09
      49.0022  1.18586e-09
      48.8593  1.31829e-09
      48.7163  1.46551e-09
      48.5734  1.62915e-09
      48.4304  1.81104e-09
      48.2875  2.01323e-09
      48.1445  2.23797e-09
      48.0015  2.48777e-09
      47.8586  2.76543e-09
      47.7156  3.07405e-09
      47.5727  3.41709e-09
      47.4297  3.79837e-09
      47.2868  4.22215e-09
      47.1438  4.69318e-09
      47.0009   5.2167e-09
      46.8579  5.79857e-09
      46.7149  6.44529e-09
       46.572  7.16406e-09
       46.429  7.96293e-09
      46.2861  8.85079e-09
      46.1431  9.83755e-09
      46.0002  1.09342e-08
      45.8572  1.21531e-08
      45.7143  1.35076e-08
      45.5713   1.5013e-08
      45.4284   1.6686e-08
      45.2854  1.85453e-08
      45.1424  2.06116e-08
      44.9995  2.29078e-08
      44.8565  2.54597e-08
      44.7136  2.82956e-08
      44.5706   3.1447e-08
      44.4277  3.49491e-08
      44.2847  3.88408e-08
      44.1418  4.31655e-08
      43.9988  4.79713e-08
      43.8558  5.33116e-08
      43.7129  5.92459e-08
      43.5699  6.58401e-08
       43.427  7.31675e-08
       43.284  8.13097e-08
      43.1411   9.0357e-08
      42.9981   1.0041e-07
      42.8552  1.11581e-07
      42.7122  1.23993e-07
      42.5692  1.37784e-07
      42.4263  1.53108e-07
      42.2833  1.70135e-07
      42.1404  1.89053e-07
      41.9974  2.10073e-07
      41.8545  2.33427e-07
      41.7115  2.59376e-07
      41.5686  2.88206e-07
      41.4256  3.20238e-07
      41.2826  3.55826e-07
      41.1397  3.95365e-07
      40.9967  4.39294e-07
      40.8538  4.88098e-07
      40.7108  5.42319e-07
      40.5679  6.02558e-07
      40.4249  6.69481e-07
       40.282   7.4383e-07
       40.139  8.26427e-07
       39.996  9.18187e-07
      39.8531  1.02012e-06
      39.7101  1.13337e-06
      39.5672  1.25917e-06
      39.4242  1.39892e-06
      39.2813  1.55417e-06
      39.1383  1.72663e-06
      38.9954  1.91821e-06
      38.8524  2.13102e-06
      38.7094  2.36742e-06
      38.5665  2.63001e-06
      38.4235   2.9217e-06
      38.2806  3.24571e-06
      38.1376  3.60562e-06
      37.9947  4.00539e-06
      37.8517  4.44944e-06
      37.7088  4.94268e-06
      37.5658  5.49053e-06
      37.4229  6.09904e-06
      37.2799  6.77492e-06
      37.1369  7.52563e-06
       36.994  8.35943e-06
       36.851  9.28552e-06
      36.7081  1.03141e-05
      36.5651  1.14565e-05
      36.4222  1.27253e-05
      36.2792  1.41345e-05
      36.1363  1.56995e-05
      35.9933  1.74377e-05
      35.8503  1.93681e-05
      35.7074  2.15119e-05
      35.5644  2.38928e-05
      35.4215   2.6537e-05
      35.2785  2.94735e-05
      35.1356  3.27345e-05
      34.9926   3.6356e-05
      34.8497  4.03777e-05
      34.7067  4.48438e-05
      34.5637  4.98034e-05
      34.4208  5.53109e-05
      34.2778  6.14268e-05
      34.1349  6.82182e-05
      33.9919  7.57596e-05
       33.849  8.41338e-05
       33.706  9.34327e-05
      33.5631  0.000103758
      33.4201  0.000115224
      33.2771  0.000127954
      33.1342   0.00014209
      32.9912  0.000157786
      32.8483  0.000175214
      32.7053  0.000194565
      32.5624   0.00021605
      32.4194  0.000239906
      32.2765  0.000266392
      32.1335  0.000295799
      31.9905   0.00032845
      31.8476  0.000364699
      31.7046  0.000404946
      31.5617  0.000449628
      31.4187  0.000499235
      31.2758  0.000554309
      31.1328  0.000615452
      30.9899  0.000683332
      30.8469   0.00075869
      30.7039  0.000842349
       30.561  0.000935222
       30.418   0.00103832
      30.2751   0.00115278
      30.1321   0.00127983
      29.9892   0.00142087
      29.8462   0.00157744
      29.7033   0.00175124
      29.5603   0.00194417
      29.4174   0.00215833
      29.2744   0.00239605
      29.1314   0.00265992
      28.9885   0.00295282
      28.8455   0.00327793
      28.7026    0.0036388
      28.5596   0.00403935
      28.4167   0.00448393
      28.2737   0.00497739
      28.1308   0.00552509
      27.9878   0.00613299
      27.8448   0.00680769
      27.7019   0.00755653
      27.5589   0.00838764
       27.416   0.00931005
       27.273    0.0103338
      27.1301    0.0114699
      26.9871    0.0127309
      26.8442    0.0141302
      26.7012    0.0156833
      26.5582    0.0174067
      26.4153    0.0193194
      26.2723     0.021442
      26.1294    0.0237974
      25.9864    0.0264114
      25.8435     0.029312
      25.7005    0.0325309
      25.5576    0.0361028
      25.4146    0.0400664
      25.2716    0.0444646
      25.1287     0.049345
      24.9857    0.0547604
      24.8428    0.0607694
      24.6998    0.0674369
      24.5569    0.0748351
      24.4139    0.0830438
       24.271    0.0921519
       24.128     0.102258
       23.985      0.11347
      23.8421     0.125911
      23.6991     0.139713
      23.5562     0.155027
      23.4132     0.172017
      23.2703     0.190867
      23.1273      0.21178
      22.9844     0.234981
      22.8414      0.26072
      22.6984     0.289276
      22.5555     0.320955
      22.4125     0.356098
      22.2696     0.395085
      22.1266     0.438335
      21.9837     0.486312
      21.8407     0.539535
      21.6978     0.598574
      21.5548     0.664065
      21.4119     0.736712
      21.2689     0.817296
      21.1259     0.906682
       20.983      1.00583
        20.84      1.11581
      20.6971       1.2378
      20.5541       1.3731
      20.4112      1.52318
      20.2682      1.68963
      20.1253      1.87426
      19.9823      2.07902
      19.8393      2.30613
      19.6964      2.55802
      19.5534      2.83737
      19.4105       3.1472
      19.2675      3.49081
      19.1246      3.87188
      18.9816       4.2945
      18.8387      4.76318
      18.6957      5.28294
      18.5527      5.85934
      18.4098      6.49854
      18.2668      7.20737
      18.1239      7.99341
      17.9809      8.86505
       17.838      9.83161
       17.695      10.9034
      17.5521      12.0919
      17.4091      13.4097
      17.2661       14.871
      17.1232      16.4912
      16.9802      18.2878
      16.8373      20.2797
      16.6943      22.4884
      16.5514      24.9372
      16.4084      27.6523
      16.2655      30.6626
      16.1225      34.0001
      15.9795      37.7004
      15.8366      41.8028
      15.6936      46.3509
      15.5507      51.3932
      15.4077      56.9832
      15.2648      63.1803
      15.1218      70.0503
      14.9789      77.6663
      14.8359      86.1091
       14.693      95.4683
        14.55      105.843
       14.407      117.344
      14.2641      130.093
      14.1211      144.224
      13.9782      159.888
      13.8352      177.251
      13.6923      196.497
      13.5493      217.829
      13.4064      241.474
      13.2634      267.681
      13.1204      296.728
      12.9775      328.922
      12.8345      364.604
      12.6916      404.151
      12.5486       447.98
      12.4057      496.556
      12.2627       550.39
      12.1198      610.052
      11.9768      676.171
      11.8338      749.445
      11.6909      830.647
      11.5479      920.633
       11.405      1020.35
       11.262      1130.86
      11.1191      1253.31
      10.9761         1389
      10.8332      1539.36
      10.6902      1705.96
      10.5472      1890.57
      10.4043      2095.13
      10.2613      2321.79
      10.1184      2572.92
      9.97542      2851.18
      9.83247      3159.47
      9.68951      3501.06
      9.54656      3879.51
       9.4036       4298.8
      9.26065      4763.33
      9.11769      5277.98
      8.97474      5848.15
      8.83178       6479.8
      8.68883      7179.57
      8.54587      7954.78
      8.40292      8813.55
      8.25996      9764.88
        8.117      10818.7
      7.97405      11986.1
      7.83109      13279.2
      7.68814      14711.7
      7.54518      16298.3
      7.40223      18055.8
      7.25927      20002.5
      7.11632      22158.7
      6.97336        24547
      6.83041      27192.2
      6.68745        30122
       6.5445      33366.9
      6.40154      36960.7
      6.25859        40941
      6.11563      45349.2
      5.97267      50231.2
      5.82972      55637.8
      5.68676      61625.3
      5.54381      68256.1
      5.40085      75599.1
       5.2579      83730.6
      5.11494      92735.2
      4.97199       102706
      4.82903       113748
      4.68608       125974
      4.54312       139513
      4.40017       154503
      4.25721       171102
      4.11425       189480
       3.9713       209829
      3.82834       232359
      3.68539       257304
      3.54243       284921
      3.39948       315498
      3.25652       349351
      3.11357       386828
      2.97061       428319
      2.82766       474252
       2.6847       525102
      2.54175       581394
      2.39879       643709
      2.25584       712690
      2.11288       789050
      1.96992       873576
      1.82697       967140
      1.68401  1.07071e+06
      1.54106  1.18534e+06
       1.3981  1.31223e+06
      1.25515  1.45267e+06
      1.11219  1.60811e+06
     0.969237  1.78016e+06
     0.826282  1.97058e+06
     0.683327  2.18132e+06
     0.540371  2.41456e+06
     0.397416  2.67269e+06
     0.254461  2.95836e+06
     0.111505  3.27451e+06
   -0.0314502  3.62437e+06
    -0.174406  4.01155e+06
    -0.317361     4.44e+06
    -0.460316  4.91412e+06
    -0.603272  5.43877e+06
    -0.746227  6.01932e+06
    -0.889182  6.66172e+06
     -1.03214  7.37253e+06
     -1.17509  8.15904e+06
     -1.31805  9.02929e+06
       -1.461  9.99217e+06
     -1.60396  1.10575e+07
     -1.74691  1.22362e+07
     -1.88987  1.35403e+07
     -2.03283  1.49831e+07
     -2.17578  1.65794e+07
     -2.31874  1.83453e+07
     -2.46169   2.0299e+07
     -2.60465  2.24602e+07
      -2.7476  2.48512e+07
     -2.89056   2.7496e+07
     -3.03351  3.04219e+07
     -3.17647  3.36583e+07
     -3.31942  3.72384e+07
     -3.46238  4.11985e+07
     -3.60533  4.55788e+07
     -3.74829  5.04239e+07
     -3.89124  5.57829e+07
      -4.0342  6.17102e+07
     -4.17716   6.8266e+07
     -4.32011  7.55167e+07
     -4.46307  8.35359e+07
     -4.60602  9.24048e+07
     -4.74898  1.02213e+08
     -4.89193  1.13061e+08
     -5.03489  1.25057e+08
     -5.17784  1.38323e+08
      -5.3208  1.52993e+08
     -5.46375  1.69216e+08
     -5.60671  1.87155e+08
     -5.74966  2.06992e+08
     -5.89262  2.28926e+08
     -6.03557   2.5318e+08
     -6.17853  2.79997e+08
     -6.32149  3.09649e+08
     -6.46444  3.42434e+08
      -6.6074  3.78682e+08
     -6.75035  4.18759e+08
     -6.89331  4.63068e+08
     -7.03626  5.12054e+08
     -7.17922  5.66211e+08
     -7.32217  6.26082e+08
     -7.46513   6.9227e+08
     -7.60808  7.65438e+08
     -7.75104  8.46323e+08
     -7.89399  9.35734e+08
     -8.03695  1.03457e+09
      -8.1799  1.14382e+09
     -8.32286  1.26458e+09
     -8.46582  1.39806e+09
     -8.60877  1.54559e+09
     -8.75173  1.70866e+09
     -8.89468  1.88889e+09
     -9.03764  2.08809e+09
     -9.18059  2.30824e+09
     -9.32355  2.55155e+09
      -9.4665  2.82044e+09
     -9.60946   3.1176e+09
     -9.75241    3.446e+09
     -9.89537   3.8089e+09
     -10.0383  4.20993e+09
     -10.1813  4.65307e+09
     -10.3242  5.14275e+09
     -10.4672  5.68384e+09
     -10.6101  6.28172e+09
     -10.7531  6.94233e+09
     -10.8961  7.67224e+09
      -11.039  8.47871e+09
      -11.182  9.36974e+09
     -11.3249  1.03542e+10
     -11.4679  1.14418e+10
     -11.6108  1.26433e+10
     -11.7538  1.39707e+10
     -11.8967  1.54372e+10
     -12.0397  1.70571e+10
     -12.1827  1.88467e+10
     -12.3256  2.08235e+10
     -12.4686   2.3007e+10
     -12.6115   2.5419e+10
     -12.7545  2.80832e+10
     -12.8974  3.10258e+10
     -13.0404   3.4276e+10
     -13.1833  3.78658e+10
     -13.3263  4.18306e+10
     -13.4693  4.62094e+10
     -13.6122  5.10454e+10
     -13.7552  5.63861e+10
     -13.8981  6.22841e+10
     -14.0411  6.87974e+10
      -14.184  7.59901e+10
      -14.327  8.39326e+10
     -14.4699   9.2703e+10
     -14.6129  1.02387e+11
     -14.7559  1.13081e+11
     -14.8988  1.24888e+11
     -15.0418  1.37925e+11
     -15.1847  1.52318e+11
     -15.3277   1.6821e+11
     -15.4706  1.85756e+11
     -15.6136  2.05126e+11
     -15.7565  2.26511e+11
     -15.8995  2.50119e+11
     -16.0424  2.76181e+11
     -16.1854   3.0495e+11
     -16.3284  3.36708e+11
     -16.4713  3.71764e+11
     -16.6143  4.10459e+11
     -16.7572   4.5317e+11
     -16.9002  5.00313e+11
     -17.0431  5.52345e+11
     -17.1861  6.09773e+11
      -17.329  6.73155e+11
      -17.472  7.43105e+11
      -17.615  8.20303e+11
     -17.7579  9.05498e+11
     -17.9009  9.99515e+11
     -18.0438  1.10326e+12
     -18.1868  1.21775e+12
     -18.3297  1.34408e+12
     -18.4727  1.48348e+12
     -18.6156  1.63729e+12
     -18.7586    1.807e+12
     -18.9016  1.99425e+12
     -19.0445  2.20085e+12
     -19.1875  2.42878e+12
     -19.3304  2.68025e+12
     -19.4734  2.95767e+12
     -19.6163  3.26373e+12
     -19.7593  3.60136e+12
     -19.9022  3.97381e+12
     -20.0452  4.38465e+12
     -20.1882  4.83784e+12
     -20.3311  5.33773e+12
     -20.4741  5.88911e+12
      -20.617  6.49727e+12
       -20.76  7.16802e+12
     -20.9029  7.90781e+12
     -21.0459   8.7237e+12
     -21.1888  9.62349e+12
     -21.3318  1.06158e+13
     -21.4748  1.17101e+13
     -21.6177  1.29168e+13
     -21.7607  1.42474e+13
     -21.9036  1.57147e+13
     -22.0466  1.73326e+13
     -22.1895  1.91166e+13
     -22.3325  2.10835e+13
     -22.4754  2.32522e+13
     -22.6184  2.56431e+13
     -22.7614  2.82792e+13
     -22.9043  3.11852e+13
     -23.0473  3.43889e+13
     -23.1902  3.79205e+13
     -23.3332  4.18138e+13
     -23.4761  4.61053e+13
     -23.6191  5.08358e+13
      -23.762  5.60501e+13
      -23.905  6.17974e+13
     -24.0479   6.8132e+13
     -24.1909  7.51136e+13
     -24.3339  8.28082e+13
     -24.4768  9.12883e+13
     -24.6198  1.00634e+14
     -24.7627  1.10933e+14
     -24.9057  1.22282e+14
     -25.0486  1.34788e+14
     -25.1916  1.48569e+14
     -25.3345  1.63753e+14
     -25.4775  1.80483e+14
     -25.6205  1.98916e+14
     -25.7634  2.19226e+14
     -25.9064  2.41601e+14
     -26.0493  2.66251e+14
     -26.1923  2.93407e+14
     -26.3352  3.23323e+14
     -26.4782  3.56279e+14
     -26.6211   3.9258e+14
     -26.7641  4.32566e+14
     -26.9071  4.76609e+14
       -27.05  5.25121e+14
      -27.193   5.7855e+14
     -27.3359  6.37395e+14
     -27.4789  7.02202e+14
     -27.6218  7.73576e+14
     -27.7648  8.52177e+14
     -27.9077  9.38732e+14
     -28.0507  1.03405e+15
     -28.1937    1.139e+15
     -28.3366  1.25457e+15
     -28.4796  1.38182e+15
     -28.6225  1.52192e+15
     -28.7655  1.67617e+15
     -28.9084    1.846e+15
     -29.0514  2.03296e+15
     -29.1943  2.23879e+15
     -29.3373  2.46536e+15
     -29.4803  2.71478e+15
     -29.6232  2.98932e+15
     -29.7662  3.29151e+15
     -29.9091  3.62411e+15
     -30.0521  3.99019e+15
      -30.195  4.39309e+15
      -30.338   4.8365e+15
     -30.4809  5.32447e+15
     -30.6239  5.86149e+15
     -30.7668  6.45244e+15
     -30.9098  7.10272e+15
     -31.0528  7.81825e+15
     -31.1957  8.60554e+15
     -31.3387  9.47179e+15
     -31.4816  1.04248e+16
     -31.6246  1.14734e+16
     -31.7675  1.26269e+16
     -31.9105  1.38959e+16
     -32.0534   1.5292e+16
     -32.1964  1.68276e+16
     -32.3394  1.85169e+16
     -32.4823   2.0375e+16
     -32.6253  2.24187e+16
     -32.7682  2.46665e+16
     -32.9112  2.71386e+16
     -33.0541  2.98574e+16
     -33.1971  3.28474e+16
       -33.34  3.61354e+16
      -33.483  3.97511e+16
      -33.626  4.37269e+16
     -33.7689  4.80986e+16
     -33.9119  5.29052e+16
     -34.0548  5.81896e+16
     -34.1978  6.39993e+16
     -34.3407  7.03865e+16
     -34.4837  7.74079e+16
     -34.6266  8.51262e+16
     -34.7696  9.36105e+16
     -34.9126  1.02937e+17
     -35.0555  1.13188e+17
     -35.1985  1.24454e+17
     -35.3414  1.36837e+17
     -35.4844  1.50445e+17
     -35.6273    1.654e+17
     -35.7703  1.81834e+17
     -35.9132  1.99892e+17
     -36.0562  2.19735e+17
     -36.1992   2.4154e+17
     -36.3421  2.65497e+17
     -36.4851  2.91819e+17
      -36.628  3.20737e+17
      -36.771  3.52508e+17
     -36.9139   3.8741e+17
     -37.0569  4.25749e+17
     -37.1998  4.67861e+17
     -37.3428   5.1412e+17
     -37.4858  5.64929e+17
     -37.6287  6.20731e+17
     -37.7717  6.82018e+17
     -37.9146  7.49322e+17
     -38.0576  8.23237e+17
     -38.2005  9.04399e+17
     -38.3435  9.93513e+17
     -38.4864  1.09136e+18
     -38.6294  1.19879e+18
     -38.7723  1.31673e+18
     -38.9153  1.44621e+18
     -39.0583  1.58836e+18
     -39.2012   1.7444e+18
     -39.3442   1.9157e+18
     -39.4871  2.10371e+18
     -39.6301  2.31007e+18
      -39.773  2.53656e+18
      -39.916  2.78512e+18
     -40.0589  3.05789e+18
     -40.2019  3.35722e+18
     -40.3449  3.68568e+18
     -40.4878  4.04613e+18
     -40.6308  4.44161e+18
     -40.7737  4.87553e+18
     -40.9167   5.3516e+18
     -41.0596  5.87392e+18
     -41.2026  6.44692e+18
     -41.3455  7.07543e+18
     -41.4885  7.76484e+18
     -41.6315  8.52109e+18
     -41.7744  9.35052e+18
     -41.9174  1.02602e+19
     -42.0603  1.12578e+19
     -42.2033  1.23518e+19
     -42.3462  1.35516e+19
     -42.4892  1.48671e+19
     -42.6321  1.63093e+19
