Temperature = 1054.9K
THERMAL DISTRIBUTIONS:
  E, kcal/mol           W1
      97.3412  4.13314e-06
      97.1982  4.38983e-06
      97.0552  4.66243e-06
      96.9123  4.95194e-06
      96.7693  5.25939e-06
      96.6264  5.58591e-06
      96.4834  5.93266e-06
      96.3405  6.30091e-06
      96.1975  6.69198e-06
      96.0546  7.10728e-06
      95.9116  7.54832e-06
      95.7686  8.01668e-06
      95.6257  8.51405e-06
      95.4827  9.04223e-06
      95.3398  9.60313e-06
      95.1968  1.01988e-05
      95.0539  1.08313e-05
      94.9109   1.1503e-05
       94.768  1.22163e-05
       94.625  1.29737e-05
       94.482   1.3778e-05
      94.3391  1.46321e-05
      94.1961  1.55391e-05
      94.0532  1.65022e-05
      93.9102  1.75249e-05
      93.7673  1.86109e-05
      93.6243  1.97641e-05
      93.4814  2.09886e-05
      93.3384  2.22888e-05
      93.1954  2.36695e-05
      93.0525  2.51355e-05
      92.9095  2.66922e-05
      92.7666  2.83452e-05
      92.6236  3.01003e-05
      92.4807   3.1964e-05
      92.3377  3.39429e-05
      92.1948   3.6044e-05
      92.0518  3.82751e-05
      91.9089   4.0644e-05
      91.7659  4.31592e-05
      91.6229  4.58299e-05
        91.48  4.86656e-05
       91.337  5.16764e-05
      91.1941  5.48732e-05
      91.0511  5.82674e-05
      90.9082  6.18712e-05
      90.7652  6.56976e-05
      90.6223  6.97602e-05
      90.4793  7.40736e-05
      90.3363  7.86532e-05
      90.1934  8.35156e-05
      90.0504   8.8678e-05
      89.9075   9.4159e-05
      89.7645  9.99781e-05
      89.6216  0.000106156
      89.4786  0.000112716
      89.3357   0.00011968
      89.1927  0.000127073
      89.0497  0.000134923
      88.9068  0.000143256
      88.7638  0.000152104
      88.6209  0.000161496
      88.4779  0.000171468
       88.335  0.000182055
       88.192  0.000193294
      88.0491  0.000205226
      87.9061  0.000217893
      87.7631   0.00023134
      87.6202  0.000245616
      87.4772  0.000260772
      87.3343  0.000276861
      87.1913  0.000293941
      87.0484  0.000312073
      86.9054  0.000331321
      86.7625  0.000351755
      86.6195  0.000373446
      86.4765  0.000396473
      86.3336  0.000420918
      86.1906  0.000446866
      86.0477  0.000474412
      85.9047  0.000503653
      85.7618  0.000534692
      85.6188  0.000567641
      85.4759  0.000602618
      85.3329  0.000639745
        85.19  0.000679156
       85.047   0.00072099
       84.904  0.000765397
      84.7611  0.000812534
      84.6181  0.000862569
      84.4752  0.000915679
      84.3322  0.000972054
      84.1893   0.00103189
      84.0463   0.00109541
      83.9034   0.00116283
      83.7604   0.00123439
      83.6174   0.00131035
      83.4745   0.00139097
      83.3315   0.00147654
      83.1886   0.00156737
      83.0456   0.00166378
      82.9027    0.0017661
      82.7597   0.00187471
      82.6168   0.00198998
      82.4738   0.00211233
      82.3308   0.00224219
      82.1879   0.00238001
      82.0449    0.0025263
       81.902   0.00268155
       81.759   0.00284633
      81.6161   0.00302122
      81.4731   0.00320683
      81.3302   0.00340383
      81.1872    0.0036129
      81.0442    0.0038348
      80.9013   0.00407029
      80.7583   0.00432022
      80.6154   0.00458547
      80.4724   0.00486698
      80.3295   0.00516573
      80.1865   0.00548279
      80.0436   0.00581927
      79.9006   0.00617636
      79.7576   0.00655533
      79.6147    0.0069575
      79.4717    0.0073843
      79.3288   0.00783723
      79.1858   0.00831789
      79.0429   0.00882797
      78.8999   0.00936928
       78.757   0.00994371
       78.614    0.0105533
       78.471    0.0112002
      78.3281    0.0118866
      78.1851    0.0126151
      78.0422    0.0133881
      77.8992    0.0142084
      77.7563    0.0150788
      77.6133    0.0160025
      77.4704    0.0169826
      77.3274    0.0180227
      77.1845    0.0191263
      77.0415    0.0202974
      76.8985      0.02154
      76.7556    0.0228586
      76.6126    0.0242577
      76.4697    0.0257423
      76.3267    0.0273176
      76.1838    0.0289891
      76.0408    0.0307626
      75.8979    0.0326445
      75.7549    0.0346412
      75.6119    0.0367599
       75.469    0.0390078
       75.326     0.041393
      75.1831    0.0439237
      75.0401    0.0466088
      74.8972    0.0494577
      74.7542    0.0524805
      74.6113    0.0556875
      74.4683    0.0590902
      74.3253    0.0627004
      74.1824    0.0665308
      74.0394    0.0705946
      73.8965    0.0749062
      73.7535    0.0794805
      73.6106    0.0843337
      73.4676    0.0894826
      73.3247    0.0949452
      73.1817     0.100741
      73.0387     0.106889
      72.8958     0.113412
      72.7528     0.120332
      72.6099     0.127674
      72.4669     0.135462
       72.324     0.143725
       72.181      0.15249
      72.0381      0.16179
      71.8951     0.171655
      71.7521      0.18212
      71.6092     0.193222
      71.4662        0.205
      71.3233     0.217493
      71.1803     0.230747
      71.0374     0.244807
      70.8944     0.259721
      70.7515     0.275542
      70.6085     0.292325
      70.4655     0.310129
      70.3226     0.329014
      70.1796     0.349046
      70.0367     0.370296
      69.8937     0.392837
      69.7508     0.416747
      69.6078     0.442109
      69.4649     0.469011
      69.3219     0.497547
       69.179     0.527815
       69.036      0.55992
       68.893     0.593975
      68.7501     0.630096
      68.6071     0.668409
      68.4642     0.709046
      68.3212     0.752149
      68.1783     0.797867
      68.0353     0.846357
      67.8924     0.897788
      67.7494     0.952337
      67.6064      1.01019
      67.4635      1.07156
      67.3205      1.13664
      67.1776      1.20567
      67.0346      1.27888
      66.8917      1.35652
      66.7487      1.43887
      66.6058      1.52621
      66.4628      1.61884
      66.3198      1.71708
      66.1769      1.82126
      66.0339      1.93175
       65.891      2.04893
       65.748      2.17321
      65.6051        2.305
      65.4621      2.44477
      65.3192      2.59299
      65.1762      2.75018
      65.0332      2.91688
      64.8903      3.09366
      64.7473      3.28113
      64.6044      3.47993
      64.4614      3.69076
      64.3185      3.91432
      64.1755       4.1514
      64.0326       4.4028
      63.8896      4.66939
      63.7466      4.95209
      63.6037      5.25187
      63.4607      5.56974
      63.3178      5.90682
      63.1748      6.26425
      63.0319      6.64325
      62.8889      7.04514
       62.746      7.47128
       62.603      7.92313
      62.4601      8.40225
      62.3171      8.91028
      62.1741      9.44895
      62.0312      10.0201
      61.8882      10.6257
      61.7453      11.2678
      61.6023      11.9487
      61.4594      12.6705
      61.3164      13.4359
      61.1735      14.2474
      61.0305      15.1078
      60.8875      16.0201
      60.7446      16.9872
      60.6016      18.0127
      60.4587      19.0999
      60.3157      20.2525
      60.1728      21.4746
      60.0298      22.7702
      59.8869      24.1438
      59.7439      25.6001
      59.6009      27.1439
       59.458      28.7807
       59.315      30.5159
      59.1721      32.3555
      59.0291      34.3057
      58.8862      36.3732
      58.7432      38.5649
      58.6003      40.8884
      58.4573      43.3516
      58.3143      45.9627
      58.1714      48.7308
      58.0284      51.6652
      57.8855      54.7758
      57.7425      58.0732
      57.5996      61.5686
      57.4566      65.2739
      57.3137      69.2016
      57.1707      73.3651
      57.0277      77.7785
      56.8848      82.4566
      56.7418      87.4155
      56.5989      92.6718
      56.4559      98.2434
       56.313      104.149
        56.17      110.409
      56.0271      117.044
      55.8841      124.077
      55.7411      131.531
      55.5982      139.432
      55.4552      147.807
      55.3123      156.683
      55.1693      166.091
      55.0264      176.062
      54.8834       186.63
      54.7405      197.831
      54.5975      209.703
      54.4546      222.285
      54.3116       235.62
      54.1686      249.753
      54.0257      264.731
      53.8827      280.606
      53.7398       297.43
      53.5968       315.26
      53.4539      334.156
      53.3109      354.181
       53.168      375.404
       53.025      397.894
       52.882      421.729
      52.7391      446.988
      52.5961      473.755
      52.4532      502.121
      52.3102      532.181
      52.1673      564.035
      52.0243      597.792
      51.8814      633.563
      51.7384      671.469
      51.5954      711.636
      51.4525        754.2
      51.3095      799.303
      51.1666      847.096
      51.0236      897.738
      50.8807        951.4
      50.7377      1008.26
      50.5948      1068.51
      50.4518      1132.35
      50.3088         1200
      50.1659      1271.67
      50.0229      1347.61
        49.88      1428.08
       49.737      1513.33
      49.5941      1603.67
      49.4511      1699.38
      49.3082      1800.78
      49.1652      1908.22
      49.0222      2022.06
      48.8793      2142.66
      48.7363      2270.44
      48.5934      2405.81
      48.4504      2549.24
      48.3075      2701.19
      48.1645      2862.17
      48.0216      3032.72
      47.8786      3213.41
      47.7356      3404.82
      47.5927      3607.61
      47.4497      3822.44
      47.3068      4050.03
      47.1638      4291.13
      47.0209      4546.54
      46.8779      4817.11
       46.735      5103.73
       46.592      5407.36
      46.4491      5728.99
      46.3061      6069.71
      46.1631      6430.63
      46.0202      6812.95
      45.8772      7217.92
      45.7343      7646.91
      45.5913      8101.31
      45.4484      8582.64
      45.3054      9092.47
      45.1625      9632.51
      45.0195      10204.5
      44.8765      10810.4
      44.7336      11452.2
      44.5906      12131.9
      44.4477      12851.8
      44.3047      13614.4
      44.1618      14422.1
      44.0188      15277.5
      43.8759      16183.5
      43.7329      17143.1
      43.5899      18159.4
       43.447      19235.8
       43.304      20375.8
      43.1611      21583.1
      43.0181      22861.8
      42.8752      24215.9
      42.7322      25650.1
      42.5893      27168.9
      42.4463      28777.4
      42.3033      30480.8
      42.1604      32284.7
      42.0174      34195.1
      41.8745      36218.1
      41.7315      38360.5
      41.5886      40629.2
      41.4456      43031.6
      41.3027      45575.7
      41.1597      48269.7
      41.0167      51122.4
      40.8738      54143.2
      40.7308      57341.9
      40.5879        60729
      40.4449      64315.6
       40.302      68113.3
       40.159      72134.5
      40.0161      76392.3
      39.8731      80900.7
      39.7302      85674.3
      39.5872      90728.6
      39.4442      96080.2
      39.3013       101746
      39.1583       107746
      39.0154       114098
      38.8724       120823
      38.7295       127943
      38.5865       135481
      38.4436       143462
      38.3006       151912
      38.1576       160858
      38.0147       170329
      37.8717       180355
      37.7288       190970
      37.5858       202208
      37.4429       214105
      37.2999       226699
       37.157       240031
       37.014       254145
       36.871       269087
      36.7281       284903
      36.5851       301646
      36.4422       319370
      36.2992       338132
      36.1563       357992
      36.0133       379015
      35.8704       401268
      35.7274       424823
      35.5844       449756
      35.4415       476147
      35.2985       504081
      35.1556       533649
      35.0126       564945
      34.8697       598071
      34.7267       633131
      34.5838       670240
      34.4408       709516
      34.2978       751086
      34.1549       795083
      34.0119       841648
       33.869       890930
       33.726       943088
      33.5831       998289
      33.4401  1.05671e+06
      33.2972  1.11854e+06
      33.1542  1.18397e+06
      33.0112  1.25321e+06
      32.8683  1.32649e+06
      32.7253  1.40404e+06
      32.5824  1.48611e+06
      32.4394  1.57296e+06
      32.2965  1.66486e+06
      32.1535  1.76212e+06
      32.0106  1.86503e+06
      31.8676  1.97394e+06
      31.7247  2.08918e+06
      31.5817  2.21112e+06
      31.4387  2.34016e+06
      31.2958  2.47669e+06
      31.1528  2.62117e+06
      31.0099  2.77404e+06
      30.8669  2.93579e+06
       30.724  3.10694e+06
       30.581  3.28803e+06
      30.4381  3.47964e+06
      30.2951  3.68237e+06
      30.1521  3.89687e+06
      30.0092  4.12382e+06
      29.8662  4.36393e+06
      29.7233  4.61797e+06
      29.5803  4.88674e+06
      29.4374   5.1711e+06
      29.2944  5.47194e+06
      29.1515  5.79022e+06
      29.0085  6.12694e+06
      28.8655  6.48316e+06
      28.7226  6.86002e+06
      28.5796  7.25869e+06
      28.4367  7.68045e+06
      28.2937  8.12662e+06
      28.1508  8.59861e+06
      28.0078   9.0979e+06
      27.8649  9.62608e+06
      27.7219  1.01848e+07
      27.5789  1.07758e+07
       27.436   1.1401e+07
       27.293  1.20623e+07
      27.1501  1.27618e+07
      27.0071  1.35018e+07
      26.8642  1.42844e+07
      26.7212  1.51123e+07
      26.5783  1.59879e+07
      26.4353   1.6914e+07
      26.2923  1.78936e+07
      26.1494  1.89298e+07
      26.0064  2.00256e+07
      25.8635  2.11847e+07
      25.7205  2.24105e+07
      25.5776   2.3707e+07
      25.4346  2.50782e+07
      25.2917  2.65284e+07
      25.1487  2.80621e+07
      25.0057  2.96842e+07
      24.8628  3.13995e+07
      24.7198  3.32137e+07
      24.5769  3.51321e+07
      24.4339   3.7161e+07
       24.291  3.93065e+07
       24.148  4.15754e+07
      24.0051  4.39747e+07
      23.8621  4.65119e+07
      23.7192  4.91949e+07
      23.5762   5.2032e+07
      23.4332   5.5032e+07
      23.2903  5.82042e+07
      23.1473  6.15586e+07
      23.0044  6.51054e+07
      22.8614  6.88558e+07
      22.7185  7.28212e+07
      22.5755  7.70141e+07
      22.4326  8.14473e+07
      22.2896  8.61346e+07
      22.1466  9.10905e+07
      22.0037  9.63304e+07
      21.8607   1.0187e+08
      21.7178  1.07728e+08
      21.5748   1.1392e+08
      21.4319  1.20467e+08
      21.2889  1.27388e+08
       21.146  1.34706e+08
       21.003  1.42442e+08
        20.86   1.5062e+08
      20.7171  1.59266e+08
      20.5741  1.68405e+08
      20.4312  1.78067e+08
      20.2882  1.88281e+08
      20.1453  1.99078e+08
      20.0023  2.10491e+08
      19.8594  2.22556e+08
      19.7164  2.35309e+08
      19.5734   2.4879e+08
      19.4305   2.6304e+08
      19.2875  2.78102e+08
      19.1446  2.94022e+08
      19.0016   3.1085e+08
      18.8587  3.28637e+08
      18.7157  3.47436e+08
      18.5728  3.67307e+08
      18.4298  3.88308e+08
      18.2868  4.10504e+08
      18.1439  4.33964e+08
      18.0009  4.58758e+08
       17.858  4.84962e+08
       17.715  5.12655e+08
      17.5721  5.41923e+08
      17.4291  5.72854e+08
      17.2862  6.05542e+08
      17.1432  6.40086e+08
      17.0002  6.76591e+08
      16.8573  7.15169e+08
      16.7143  7.55936e+08
      16.5714  7.99016e+08
      16.4284  8.44539e+08
      16.2855  8.92643e+08
      16.1425  9.43474e+08
      15.9996  9.97185e+08
      15.8566  1.05394e+09
      15.7137  1.11391e+09
      15.5707  1.17727e+09
      15.4277  1.24422e+09
      15.2848  1.31496e+09
      15.1418  1.38971e+09
      14.9989  1.46868e+09
      14.8559  1.55211e+09
       14.713  1.64027e+09
        14.57   1.7334e+09
      14.4271   1.8318e+09
      14.2841  1.93575e+09
      14.1411  2.04557e+09
      13.9982   2.1616e+09
      13.8552  2.28417e+09
      13.7123  2.41366e+09
      13.5693  2.55044e+09
      13.4264  2.69495e+09
      13.2834   2.8476e+09
      13.1405  3.00885e+09
      12.9975  3.17918e+09
      12.8545  3.35911e+09
      12.7116  3.54917e+09
      12.5686  3.74993e+09
      12.4257  3.96198e+09
      12.2827  4.18597e+09
      12.1398  4.42255e+09
      11.9968  4.67243e+09
      11.8539  4.93636e+09
      11.7109  5.21511e+09
      11.5679  5.50953e+09
       11.425  5.82048e+09
       11.282  6.14889e+09
      11.1391  6.49572e+09
      10.9961  6.86202e+09
      10.8532  7.24887e+09
      10.7102   7.6574e+09
      10.5673  8.08884e+09
      10.4243  8.54446e+09
      10.2813   9.0256e+09
      10.1384  9.53369e+09
      9.99544  1.00702e+10
      9.85248  1.06368e+10
      9.70953  1.12351e+10
      9.56657  1.18668e+10
      9.42362  1.25339e+10
      9.28066  1.32382e+10
      9.13771  1.39819e+10
      8.99475  1.47672e+10
       8.8518  1.55963e+10
      8.70884  1.64717e+10
      8.56588   1.7396e+10
      8.42293  1.83719e+10
      8.27997  1.94021e+10
      8.13702  2.04899e+10
      7.99406  2.16383e+10
      7.85111  2.28506e+10
      7.70815  2.41306e+10
       7.5652  2.54818e+10
      7.42224  2.69082e+10
      7.27929   2.8414e+10
      7.13633  3.00036e+10
      6.99338  3.16816e+10
      6.85042  3.34529e+10
      6.70746  3.53227e+10
      6.56451  3.72964e+10
      6.42155  3.93797e+10
       6.2786  4.15787e+10
      6.13564  4.38998e+10
      5.99269  4.63497e+10
      5.84973  4.89356e+10
      5.70678  5.16648e+10
      5.56382  5.45453e+10
      5.42087  5.75855e+10
      5.27791  6.07941e+10
      5.13496  6.41805e+10
        4.992  6.77543e+10
      4.84905  7.15259e+10
      4.70609  7.55062e+10
      4.56313  7.97067e+10
      4.42018  8.41394e+10
      4.27722  8.88171e+10
      4.13427  9.37533e+10
      3.99131  9.89621e+10
      3.84836  1.04459e+11
       3.7054  1.10258e+11
      3.56245  1.16378e+11
      3.41949  1.22836e+11
      3.27654  1.29649e+11
      3.13358  1.36838e+11
      2.99063  1.44423e+11
      2.84767  1.52426e+11
      2.70472   1.6087e+11
      2.56176  1.69778e+11
       2.4188  1.79177e+11
      2.27585  1.89092e+11
      2.13289  1.99553e+11
      1.98994  2.10589e+11
      1.84698  2.22231e+11
      1.70403  2.34513e+11
      1.56107  2.47469e+11
      1.41812  2.61136e+11
      1.27516  2.75553e+11
      1.13221  2.90761e+11
     0.989251  3.06803e+11
     0.846296  3.23723e+11
      0.70334  3.41571e+11
     0.560385  3.60397e+11
      0.41743  3.80253e+11
     0.274474  4.01195e+11
     0.131519  4.23284e+11
   -0.0114364   4.4658e+11
    -0.154392   4.7115e+11
    -0.297347  4.97062e+11
    -0.440302   5.2439e+11
    -0.583258   5.5321e+11
    -0.726213  5.83603e+11
    -0.869169  6.15655e+11
     -1.01212  6.49454e+11
     -1.15508  6.85097e+11
     -1.29803  7.22682e+11
     -1.44099  7.62315e+11
     -1.58395  8.04105e+11
      -1.7269  8.48172e+11
     -1.86986  8.94636e+11
     -2.01281  9.43628e+11
     -2.15577  9.95283e+11
     -2.29872  1.04975e+12
     -2.44168  1.10717e+12
     -2.58463  1.16771e+12
     -2.72759  1.23154e+12
     -2.87054  1.29883e+12
      -3.0135  1.36978e+12
     -3.15645  1.44457e+12
     -3.29941  1.52341e+12
     -3.44236  1.60653e+12
     -3.58532  1.69415e+12
     -3.72828  1.78651e+12
     -3.87123  1.88387e+12
     -4.01419  1.98649e+12
     -4.15714  2.09467e+12
      -4.3001  2.20869e+12
     -4.44305  2.32887e+12
     -4.58601  2.45555e+12
     -4.72896  2.58906e+12
     -4.87192  2.72978e+12
     -5.01487  2.87809e+12
     -5.15783  3.03439e+12
     -5.30078  3.19912e+12
     -5.44374  3.37272e+12
     -5.58669  3.55567e+12
     -5.72965  3.74847e+12
     -5.87261  3.95164e+12
     -6.01556  4.16574e+12
     -6.15852  4.39135e+12
     -6.30147  4.62908e+12
     -6.44443  4.87958e+12
     -6.58738  5.14354e+12
     -6.73034  5.42166e+12
     -6.87329   5.7147e+12
     -7.01625  6.02346e+12
      -7.1592  6.34876e+12
     -7.30216  6.69149e+12
     -7.44511  7.05258e+12
     -7.58807    7.433e+12
     -7.73103  7.83377e+12
     -7.87398  8.25597e+12
     -8.01694  8.70075e+12
