Temperature = 1569.23K
THERMAL DISTRIBUTIONS:
  E, kcal/mol           W1
      138.224    0.0351088
      138.081    0.0365113
      137.938    0.0379698
      137.795    0.0394864
      137.652    0.0410634
      137.509    0.0427032
      137.366    0.0444084
      137.223    0.0461815
       137.08    0.0480251
      136.937    0.0499422
      136.794    0.0519356
      136.651    0.0540084
      136.508    0.0561637
      136.365    0.0584048
      136.222    0.0607351
      136.079    0.0631581
      135.936    0.0656775
      135.793    0.0682972
       135.65    0.0710211
      135.507    0.0738534
      135.364    0.0767983
      135.221    0.0798603
      135.079    0.0830442
      134.936    0.0863546
      134.793    0.0897966
       134.65    0.0933755
      134.507    0.0970966
      134.364     0.100966
      134.221     0.104988
      134.078     0.109171
      133.935      0.11352
      133.792     0.118042
      133.649     0.122743
      133.506     0.127631
      133.363     0.132713
       133.22     0.137997
      133.077     0.143491
      132.934     0.149203
      132.791     0.155142
      132.648     0.161316
      132.505     0.167736
      132.362      0.17441
      132.219     0.181349
      132.076     0.188564
      131.933     0.196065
      131.791     0.203863
      131.648     0.211971
      131.505       0.2204
      131.362     0.229164
      131.219     0.238275
      131.076     0.247747
      130.933     0.257595
       130.79     0.267834
      130.647     0.278478
      130.504     0.289544
      130.361     0.301049
      130.218     0.313009
      130.075     0.325444
      129.932     0.338371
      129.789      0.35181
      129.646     0.365781
      129.503     0.380306
       129.36     0.395406
      129.217     0.411104
      129.074     0.427423
      128.931     0.444388
      128.788     0.462025
      128.646      0.48036
      128.503     0.499421
       128.36     0.519236
      128.217     0.539834
      128.074     0.561248
      127.931     0.583509
      127.788      0.60665
      127.645     0.630706
      127.502     0.655714
      127.359      0.68171
      127.216     0.708734
      127.073     0.736827
       126.93      0.76603
      126.787     0.796387
      126.644     0.827943
      126.501     0.860747
      126.358     0.894847
      126.215     0.930293
      126.072      0.96714
      125.929      1.00544
      125.786      1.04526
      125.643      1.08664
        125.5      1.12966
      125.358      1.17438
      125.215      1.22087
      125.072      1.26919
      124.929      1.31941
      124.786      1.37162
      124.643      1.42589
        124.5       1.4823
      124.357      1.54093
      124.214      1.60188
      124.071      1.66523
      123.928      1.73108
      123.785      1.79952
      123.642      1.87067
      123.499      1.94461
      123.356      2.02148
      123.213      2.10137
       123.07      2.18441
      122.927      2.27072
      122.784      2.36043
      122.641      2.45368
      122.498      2.55059
      122.355      2.65133
      122.213      2.75603
       122.07      2.86486
      121.927      2.97797
      121.784      3.09553
      121.641      3.21772
      121.498      3.34472
      121.355      3.47671
      121.212       3.6139
      121.069      3.75649
      120.926      3.90469
      120.783      4.05871
       120.64      4.21879
      120.497      4.38517
      120.354      4.55809
      120.211      4.73781
      120.068      4.92459
      119.925      5.11871
      119.782      5.32047
      119.639      5.53015
      119.496      5.74807
      119.353      5.97455
       119.21      6.20993
      119.068      6.45455
      118.925      6.70878
      118.782        6.973
      118.639      7.24758
      118.496      7.53295
      118.353      7.82952
       118.21      8.13773
      118.067      8.45803
      117.924       8.7909
      117.781      9.13684
      117.638      9.49634
      117.495      9.86995
      117.352      10.2582
      117.209      10.6617
      117.066       11.081
      116.923      11.5167
       116.78      11.9696
      116.637      12.4401
      116.494      12.9292
      116.351      13.4374
      116.208      13.9654
      116.065      14.5142
      115.922      15.0845
       115.78      15.6771
      115.637       16.293
      115.494      16.9329
      115.351      17.5979
      115.208      18.2889
      115.065       19.007
      114.922      19.7532
      114.779      20.5286
      114.636      21.3343
      114.493      22.1716
       114.35      23.0416
      114.207      23.9456
      114.064       24.885
      113.921      25.8612
      113.778      26.8755
      113.635      27.9294
      113.492      29.0246
      113.349      30.1625
      113.206      31.3449
      113.063      32.5736
       112.92      33.8502
      112.777      35.1767
      112.635       36.555
      112.492      37.9872
      112.349      39.4753
      112.206      41.0214
      112.063       42.628
       111.92      44.2972
      111.777      46.0317
      111.634      47.8337
      111.491      49.7062
      111.348      51.6516
      111.205       53.673
      111.062      55.7732
      110.919      57.9553
      110.776      60.2225
      110.633      62.5782
       110.49      65.0256
      110.347      67.5685
      110.204      70.2104
      110.061      72.9553
      109.918      75.8072
      109.775      78.7702
      109.632      81.8486
       109.49      85.0469
      109.347      88.3698
      109.204      91.8221
      109.061      95.4087
      108.918      99.1351
      108.775      103.006
      108.632      107.028
      108.489      111.207
      108.346      115.548
      108.203      120.058
       108.06      124.744
      107.917      129.611
      107.774      134.668
      107.631      139.922
      107.488       145.38
      107.345       151.05
      107.202       156.94
      107.059      163.059
      106.916      169.416
      106.773      176.021
       106.63      182.881
      106.487      190.008
      106.344      197.412
      106.202      205.104
      106.059      213.094
      105.916      221.394
      105.773      230.016
       105.63      238.973
      105.487      248.278
      105.344      257.943
      105.201      267.984
      105.058      278.414
      104.915      289.249
      104.772      300.503
      104.629      312.194
      104.486      324.339
      104.343      336.954
        104.2      350.058
      104.057       363.67
      103.914      377.809
      103.771      392.496
      103.628      407.752
      103.485      423.598
      103.342      440.059
      103.199      457.156
      103.057      474.916
      102.914      493.363
      102.771      512.524
      102.628      532.427
      102.485      553.099
      102.342      574.572
      102.199      596.875
      102.056       620.04
      101.913      644.102
       101.77      669.093
      101.627      695.051
      101.484      722.013
      101.341      750.016
      101.198      779.101
      101.055       809.31
      100.912      840.687
      100.769      873.275
      100.626      907.122
      100.483      942.275
       100.34      978.786
      100.197      1016.71
      100.054      1056.09
      99.9115         1097
      99.7685      1139.48
      99.6256       1183.6
      99.4826      1229.42
      99.3397      1277.01
      99.1967      1326.44
      99.0538      1377.77
      98.9108      1431.09
      98.7678      1486.45
      98.6249      1543.95
      98.4819      1603.67
       98.339      1665.69
       98.196      1730.09
      98.0531      1796.98
      97.9101      1866.45
      97.7672      1938.58
      97.6242       2013.5
      97.4813       2091.3
      97.3383       2172.1
      97.1953         2256
      97.0524      2343.13
      96.9094      2433.62
      96.7665      2527.59
      96.6235      2625.17
      96.4806       2726.5
      96.3376      2831.73
      96.1947      2941.01
      96.0517      3054.48
      95.9087      3172.32
      95.7658      3294.69
      95.6228      3421.76
      95.4799      3553.71
      95.3369      3690.72
       95.194         3833
       95.051      3980.75
      94.9081      4134.16
      94.7651      4293.47
      94.6221      4458.89
      94.4792      4630.65
      94.3362      4809.01
      94.1933      4994.21
      94.0503      5186.52
      93.9074       5386.2
      93.7644      5593.54
      93.6215      5808.82
      93.4785      6032.36
      93.3355      6264.47
      93.1926      6505.47
      93.0496      6755.71
      92.9067      7015.54
      92.7637      7285.31
      92.6208      7565.42
      92.4778      7856.26
      92.3349      8158.23
      92.1919      8471.76
      92.0489      8797.29
       91.906      9135.28
       91.763       9486.2
      91.6201      9850.55
      91.4771      10228.8
      91.3342      10621.6
      91.1912      11029.4
      91.0483      11452.7
      90.9053      11892.3
      90.7623      12348.6
      90.6194      12822.4
      90.4764      13314.3
      90.3335      13824.9
      90.1905      14355.1
      90.0476      14905.5
      89.9046        15477
      89.7617      16070.3
      89.6187      16686.2
      89.4758      17325.6
      89.3328      17989.4
      89.1898      18678.5
      89.0469        19394
      88.9039      20136.7
       88.761      20907.7
       88.618      21708.2
      88.4751      22539.1
      88.3321      23401.8
      88.1892      24297.3
      88.0462      25226.9
      87.9032      26191.9
      87.7603      27193.7
      87.6173      28233.7
      87.4744      29313.2
      87.3314      30433.9
      87.1885      31597.2
      87.0455      32804.8
      86.9026      34058.3
      86.7596      35359.6
      86.6166      36710.3
      86.4737      38112.4
      86.3307      39567.8
      86.1878      41078.6
      86.0448      42646.8
      85.9019      44274.6
      85.7589      45964.3
       85.616      47718.1
       85.473      49538.6
        85.33      51428.2
      85.1871      53389.6
      85.0441      55425.5
      84.9012      57538.7
      84.7582      59732.1
      84.6153      62008.7
      84.4723      64371.7
      84.3294      66824.3
      84.1864        69370
      84.0434      72012.2
      83.9005      74754.7
      83.7575        77601
      83.6146      80555.3
      83.4716      83621.6
      83.3287        86804
      83.1857        90107
      83.0428      93535.1
      82.8998        97093
      82.7569       100786
      82.6139       104618
      82.4709       108596
       82.328       112724
       82.185       117008
      82.0421       121454
      81.8991       126069
      81.7562       130858
      81.6132       135828
      81.4703       140986
      81.3273       146339
      81.1843       151895
      81.0414       157660
      80.8984       163643
      80.7555       169852
      80.6125       176296
      80.4696       182982
      80.3266       189922
      80.1837       197123
      80.0407       204596
      79.8977       212351
      79.7548       220398
      79.6118       228749
      79.4689       237415
      79.3259       246408
       79.183       255740
        79.04       265423
      78.8971       275472
      78.7541       285899
      78.6111       296718
      78.4682       307946
      78.3252       319596
      78.1823       331684
      78.0393       344228
      77.8964       357244
      77.7534       370749
      77.6105       384763
      77.4675       399304
      77.3245       414392
      77.1816       430047
      77.0386       446290
      76.8957       463144
      76.7527       480631
      76.6098       498776
      76.4668       517602
      76.3239       537135
      76.1809       557402
      76.0379       578429
       75.895       600246
       75.752       622882
      75.6091       646367
      75.4661       670733
      75.3232       696013
      75.1802       722241
      75.0373       749453
      74.8943       777684
      74.7514       806974
      74.6084       837361
      74.4654       868887
      74.3225       901594
      74.1795       935525
      74.0366       970728
      73.8936  1.00725e+06
      73.7507  1.04513e+06
      73.6077  1.08444e+06
      73.4648  1.12521e+06
      73.3218  1.16752e+06
      73.1788   1.2114e+06
      73.0359  1.25692e+06
      72.8929  1.30415e+06
        72.75  1.35314e+06
       72.607  1.40396e+06
      72.4641  1.45668e+06
      72.3211  1.51137e+06
      72.1782   1.5681e+06
      72.0352  1.62696e+06
      71.8922    1.688e+06
      71.7493  1.75133e+06
      71.6063  1.81702e+06
      71.4634  1.88516e+06
      71.3204  1.95585e+06
      71.1775  2.02917e+06
      71.0345  2.10522e+06
      70.8916  2.18411e+06
      70.7486  2.26594e+06
      70.6056  2.35082e+06
      70.4627  2.43886e+06
      70.3197  2.53019e+06
      70.1768  2.62491e+06
      70.0338  2.72316e+06
      69.8909  2.82507e+06
      69.7479  2.93077e+06
       69.605  3.04041e+06
       69.462  3.15412e+06
       69.319  3.27206e+06
      69.1761   3.3944e+06
      69.0331  3.52128e+06
      68.8902  3.65287e+06
      68.7472  3.78936e+06
      68.6043  3.93092e+06
      68.4613  4.07774e+06
      68.3184  4.23001e+06
      68.1754  4.38794e+06
      68.0324  4.55173e+06
      67.8895  4.72161e+06
      67.7465  4.89778e+06
      67.6036   5.0805e+06
      67.4606  5.26999e+06
      67.3177  5.46651e+06
      67.1747  5.67032e+06
      67.0318  5.88169e+06
      66.8888  6.10089e+06
      66.7459  6.32821e+06
      66.6029  6.56396e+06
      66.4599  6.80844e+06
       66.317  7.06198e+06
       66.174   7.3249e+06
      66.0311  7.59755e+06
      65.8881   7.8803e+06
      65.7452  8.17351e+06
      65.6022  8.47757e+06
      65.4593  8.79288e+06
      65.3163  9.11984e+06
      65.1733   9.4589e+06
      65.0304  9.81049e+06
      64.8874  1.01751e+07
      64.7445  1.05531e+07
      64.6015  1.09451e+07
      64.4586  1.13516e+07
      64.3156  1.17731e+07
      64.1727  1.22102e+07
      64.0297  1.26634e+07
      63.8867  1.31333e+07
      63.7438  1.36206e+07
      63.6008  1.41258e+07
      63.4579  1.46497e+07
      63.3149  1.51928e+07
       63.172   1.5756e+07
       63.029    1.634e+07
      62.8861  1.69455e+07
      62.7431  1.75732e+07
      62.6001  1.82241e+07
      62.4572   1.8899e+07
      62.3142  1.95986e+07
      62.1713  2.03241e+07
      62.0283  2.10762e+07
      61.8854   2.1856e+07
      61.7424  2.26645e+07
      61.5995  2.35027e+07
      61.4565  2.43717e+07
      61.3135  2.52727e+07
      61.1706  2.62068e+07
      61.0276  2.71751e+07
      60.8847  2.81791e+07
      60.7417  2.92199e+07
      60.5988  3.02989e+07
      60.4558  3.14175e+07
      60.3129  3.25772e+07
      60.1699  3.37794e+07
       60.027  3.50257e+07
       59.884  3.63177e+07
       59.741   3.7657e+07
      59.5981  3.90455e+07
      59.4551  4.04848e+07
      59.3122  4.19768e+07
      59.1692  4.35235e+07
      59.0263  4.51269e+07
      58.8833  4.67889e+07
      58.7404  4.85118e+07
      58.5974  5.02977e+07
      58.4544  5.21489e+07
      58.3115  5.40678e+07
      58.1685  5.60569e+07
      58.0256  5.81187e+07
      57.8826  6.02559e+07
      57.7397  6.24712e+07
      57.5967  6.47674e+07
      57.4538  6.71474e+07
      57.3108  6.96144e+07
      57.1678  7.21714e+07
      57.0249  7.48217e+07
      56.8819  7.75687e+07
       56.739  8.04159e+07
       56.596   8.3367e+07
      56.4531  8.64256e+07
      56.3101  8.95958e+07
      56.1672  9.28814e+07
      56.0242  9.62868e+07
      55.8812  9.98162e+07
      55.7383  1.03474e+08
      55.5953  1.07265e+08
      55.4524  1.11194e+08
      55.3094  1.15266e+08
      55.1665  1.19487e+08
      55.0235   1.2386e+08
      54.8806  1.28393e+08
      54.7376  1.33091e+08
      54.5946  1.37959e+08
      54.4517  1.43004e+08
      54.3087  1.48232e+08
      54.1658  1.53651e+08
      54.0228  1.59266e+08
      53.8799  1.65084e+08
      53.7369  1.71114e+08
       53.594  1.77363e+08
       53.451  1.83838e+08
       53.308  1.90549e+08
      53.1651  1.97502e+08
      53.0221  2.04707e+08
      52.8792  2.12174e+08
      52.7362  2.19911e+08
      52.5933  2.27928e+08
      52.4503  2.36236e+08
      52.3074  2.44844e+08
      52.1644  2.53763e+08
      52.0215  2.63006e+08
      51.8785  2.72582e+08
      51.7355  2.82505e+08
      51.5926  2.92787e+08
      51.4496   3.0344e+08
      51.3067  3.14478e+08
      51.1637  3.25915e+08
      51.0208  3.37765e+08
      50.8778  3.50043e+08
      50.7349  3.62763e+08
      50.5919  3.75943e+08
      50.4489  3.89598e+08
       50.306  4.03746e+08
       50.163  4.18404e+08
      50.0201   4.3359e+08
      49.8771  4.49323e+08
      49.7342  4.65624e+08
      49.5912  4.82511e+08
      49.4483  5.00006e+08
      49.3053  5.18131e+08
      49.1623  5.36909e+08
      49.0194  5.56362e+08
      48.8764  5.76514e+08
      48.7335  5.97392e+08
      48.5905  6.19019e+08
      48.4476  6.41424e+08
      48.3046  6.64634e+08
      48.1617  6.88678e+08
      48.0187  7.13585e+08
      47.8757  7.39387e+08
      47.7328  7.66114e+08
      47.5898    7.938e+08
      47.4469   8.2248e+08
      47.3039  8.52188e+08
       47.161   8.8296e+08
       47.018  9.14836e+08
      46.8751  9.47854e+08
      46.7321  9.82055e+08
      46.5891  1.01748e+09
      46.4462  1.05417e+09
      46.3032  1.09218e+09
      46.1603  1.13155e+09
      46.0173  1.17232e+09
      45.8744  1.21455e+09
      45.7314   1.2583e+09
      45.5885   1.3036e+09
      45.4455  1.35053e+09
      45.3025  1.39913e+09
      45.1596  1.44947e+09
      45.0166   1.5016e+09
      44.8737  1.55559e+09
      44.7307  1.61151e+09
      44.5878  1.66943e+09
      44.4448  1.72941e+09
      44.3019  1.79153e+09
      44.1589  1.85586e+09
       44.016  1.92248e+09
       43.873  1.99148e+09
        43.73  2.06293e+09
      43.5871  2.13693e+09
      43.4441  2.21356e+09
      43.3012  2.29292e+09
      43.1582   2.3751e+09
      43.0153   2.4602e+09
      42.8723  2.54832e+09
      42.7294  2.63958e+09
      42.5864  2.73408e+09
      42.4434  2.83193e+09
      42.3005  2.93326e+09
      42.1575  3.03818e+09
      42.0146  3.14683e+09
      41.8716  3.25933e+09
      41.7287  3.37582e+09
      41.5857  3.49644e+09
      41.4428  3.62133e+09
      41.2998  3.75065e+09
      41.1568  3.88455e+09
      41.0139  4.02319e+09
      40.8709  4.16673e+09
       40.728  4.31536e+09
       40.585  4.46924e+09
      40.4421  4.62856e+09
      40.2991  4.79352e+09
      40.1562  4.96431e+09
      40.0132  5.14112e+09
      39.8702  5.32419e+09
      39.7273  5.51372e+09
      39.5843  5.70993e+09
      39.4414  5.91307e+09
      39.2984  6.12338e+09
      39.1555   6.3411e+09
      39.0125   6.5665e+09
      38.8696  6.79984e+09
      38.7266   7.0414e+09
      38.5836  7.29147e+09
      38.4407  7.55035e+09
      38.2977  7.81833e+09
      38.1548  8.09575e+09
      38.0118  8.38292e+09
      37.8689  8.68019e+09
      37.7259  8.98791e+09
       37.583  9.30644e+09
        37.44  9.63616e+09
      37.2971  9.97746e+09
      37.1541  1.03307e+10
      37.0111  1.06964e+10
      36.8682  1.10749e+10
      36.7252  1.14667e+10
      36.5823  1.18722e+10
      36.4393   1.2292e+10
      36.2964  1.27264e+10
      36.1534  1.31761e+10
      36.0105  1.36415e+10
      35.8675  1.41232e+10
      35.7245  1.46217e+10
      35.5816  1.51377e+10
      35.4386  1.56718e+10
      35.2957  1.62245e+10
      35.1527  1.67965e+10
      35.0098  1.73885e+10
      34.8668  1.80012e+10
      34.7239  1.86352e+10
      34.5809  1.92914e+10
      34.4379  1.99705e+10
       34.295  2.06732e+10
       34.152  2.14005e+10
      34.0091  2.21531e+10
      33.8661   2.2932e+10
      33.7232  2.37379e+10
      33.5802  2.45719e+10
      33.4373   2.5435e+10
      33.2943   2.6328e+10
      33.1513  2.72522e+10
      33.0084  2.82084e+10
      32.8654  2.91979e+10
