Temperature = 525.562K
THERMAL DISTRIBUTIONS:
  E, kcal/mol           W1
      55.2637  1.81969e-17
      55.1207  2.06609e-17
      54.9778  2.34583e-17
      54.8348  2.66343e-17
      54.6919  3.02401e-17
      54.5489  3.43337e-17
      54.4059  3.89811e-17
       54.263  4.42572e-17
        54.12  5.02471e-17
      53.9771  5.70471e-17
      53.8341  6.47669e-17
      53.6912  7.35307e-17
      53.5482  8.34796e-17
      53.4053  9.47739e-17
      53.2623  1.07595e-16
      53.1193   1.2215e-16
      52.9764  1.38673e-16
      52.8334  1.57429e-16
      52.6905  1.78721e-16
      52.5475   2.0289e-16
      52.4046  2.30327e-16
      52.2616  2.61471e-16
      52.1187  2.96824e-16
      51.9757  3.36953e-16
      51.8327  3.82505e-16
      51.6898  4.34212e-16
      51.5468  4.92903e-16
      51.4039  5.59523e-16
      51.2609  6.35142e-16
       51.118  7.20975e-16
       50.975  8.18399e-16
      50.8321  9.28981e-16
      50.6891  1.05449e-15
      50.5462  1.19696e-15
      50.4032  1.35865e-15
      50.2602  1.54218e-15
      50.1173  1.75048e-15
      49.9743   1.9869e-15
      49.8314  2.25523e-15
      49.6884  2.55978e-15
      49.5455  2.90542e-15
      49.4025  3.29771e-15
      49.2596  3.74294e-15
      49.1166  4.24823e-15
      48.9736   4.8217e-15
      48.8307  5.47253e-15
      48.6877  6.21115e-15
      48.5448  7.04941e-15
      48.4018  8.00072e-15
      48.2589  9.08033e-15
      48.1159  1.03055e-14
       47.973  1.16959e-14
        47.83  1.32738e-14
       47.687  1.50644e-14
      47.5441  1.70964e-14
      47.4011  1.94024e-14
      47.2582  2.20191e-14
      47.1152  2.49885e-14
      46.9723  2.83582e-14
      46.8293  3.21819e-14
      46.6864  3.65208e-14
      46.5434  4.14444e-14
      46.4004  4.70313e-14
      46.2575  5.33709e-14
      46.1145  6.05645e-14
      45.9716   6.8727e-14
      45.8286  7.79889e-14
      45.6857  8.84981e-14
      45.5427  1.00423e-13
      45.3998  1.13953e-13
      45.2568  1.29305e-13
      45.1138  1.46723e-13
      44.9709  1.66487e-13
      44.8279  1.88911e-13
       44.685  2.14353e-13
       44.542   2.4322e-13
      44.3991  2.75972e-13
      44.2561   3.1313e-13
      44.1132  3.55289e-13
      43.9702   4.0312e-13
      43.8273  4.57386e-13
      43.6843  5.18952e-13
      43.5413    5.888e-13
      43.3984  6.68042e-13
      43.2554  7.57941e-13
      43.1125  8.59931e-13
      42.9695  9.75635e-13
      42.8266   1.1069e-12
      42.6836   1.2558e-12
      42.5407  1.42473e-12
      42.3977  1.61637e-12
      42.2547  1.83376e-12
      42.1118  2.08037e-12
      41.9688  2.36013e-12
      41.8259  2.67748e-12
      41.6829  3.03747e-12
        41.54  3.44583e-12
       41.397  3.90905e-12
      41.2541   4.4345e-12
      41.1111  5.03052e-12
      40.9681  5.70661e-12
      40.8252  6.47349e-12
      40.6822  7.34335e-12
      40.5393  8.33002e-12
      40.3963  9.44917e-12
      40.2534  1.07186e-11
      40.1104  1.21584e-11
      39.9675  1.37915e-11
      39.8245  1.56438e-11
      39.6815  1.77446e-11
      39.5386  2.01274e-11
      39.3956    2.283e-11
      39.2527  2.58952e-11
      39.1097  2.93716e-11
      38.9668  3.33144e-11
      38.8238   3.7786e-11
      38.6809  4.28575e-11
      38.5379  4.86091e-11
      38.3949  5.51321e-11
       38.252  6.25297e-11
       38.109  7.09192e-11
      37.9661  8.04336e-11
      37.8231  9.12234e-11
      37.6802   1.0346e-10
      37.5372  1.17336e-10
      37.3943  1.33072e-10
      37.2513  1.50917e-10
      37.1083  1.71153e-10
      36.9654    1.941e-10
      36.8224  2.20122e-10
      36.6795   2.4963e-10
      36.5365   2.8309e-10
      36.3936  3.21032e-10
      36.2506  3.64056e-10
      36.1077  4.12841e-10
      35.9647  4.68159e-10
      35.8218  5.30883e-10
      35.6788  6.02005e-10
      35.5358  6.82648e-10
      35.3929  7.74086e-10
      35.2499  8.77761e-10
       35.107  9.95312e-10
       34.964  1.12859e-09
      34.8211  1.27971e-09
      34.6781  1.45104e-09
      34.5352   1.6453e-09
      34.3922  1.86554e-09
      34.2492  2.11524e-09
      34.1063  2.39833e-09
      33.9633  2.71929e-09
      33.8204  3.08316e-09
      33.6774  3.49568e-09
      33.5345  3.96336e-09
      33.3915  4.49356e-09
      33.2486  5.09463e-09
      33.1056  5.77604e-09
      32.9626  6.54851e-09
      32.8197  7.42422e-09
      32.6767  8.41693e-09
      32.5338  9.54228e-09
      32.3908   1.0818e-08
      32.2479  1.22641e-08
      32.1049  1.39033e-08
       31.962  1.57615e-08
       31.819  1.78678e-08
       31.676  2.02554e-08
      31.5331  2.29618e-08
      31.3901  2.60295e-08
      31.2472  2.95067e-08
      31.1042  3.34481e-08
      30.9613  3.79155e-08
      30.8183  4.29791e-08
      30.6754  4.87184e-08
      30.5324  5.52234e-08
      30.3894  6.25964e-08
      30.2465  7.09528e-08
      30.1035   8.0424e-08
      29.9606  9.11584e-08
      29.8176  1.03324e-07
      29.6747  1.17113e-07
      29.5317  1.32739e-07
      29.3888  1.50449e-07
      29.2458   1.7052e-07
      29.1028  1.93267e-07
      28.9599  2.19045e-07
      28.8169  2.48259e-07
       28.674  2.81365e-07
       28.531  3.18883e-07
      28.3881  3.61399e-07
      28.2451  4.09579e-07
      28.1022  4.64177e-07
      27.9592  5.26046e-07
      27.8163  5.96156e-07
      27.6733  6.75601e-07
      27.5303  7.65624e-07
      27.3874  8.67632e-07
      27.2444   9.8322e-07
      27.1015  1.11419e-06
      26.9585   1.2626e-06
      26.8156  1.43075e-06
      26.6726  1.62128e-06
      26.5297  1.83717e-06
      26.3867  2.08177e-06
      26.2437  2.35891e-06
      26.1008  2.67291e-06
      25.9578  3.02868e-06
      25.8149  3.43176e-06
      25.6719  3.88843e-06
       25.529  4.40582e-06
       25.386  4.99199e-06
      25.2431  5.65609e-06
      25.1001  6.40845e-06
      24.9571  7.26079e-06
      24.8142  8.22641e-06
      24.6712  9.32032e-06
      24.5283  1.05596e-05
      24.3853  1.19634e-05
      24.2424  1.35538e-05
      24.0994  1.53554e-05
      23.9565  1.73962e-05
      23.8135   1.9708e-05
      23.6705  2.23268e-05
      23.5276  2.52932e-05
      23.3846  2.86534e-05
      23.2417  3.24596e-05
      23.0987  3.67709e-05
      22.9558  4.16543e-05
      22.8128  4.71857e-05
      22.6699   5.3451e-05
      22.5269  6.05473e-05
      22.3839   6.8585e-05
       22.241  7.76886e-05
       22.098  8.79995e-05
      21.9551  9.96777e-05
      21.8121  0.000112904
      21.6692  0.000127884
      21.5262  0.000144849
      21.3833  0.000164063
      21.2403  0.000185824
      21.0974  0.000210467
      20.9544  0.000238376
      20.8114  0.000269982
      20.6685  0.000305775
      20.5255  0.000346309
      20.3826   0.00039221
      20.2396   0.00044419
      20.0967  0.000503052
      19.9537  0.000569707
      19.8108  0.000645184
      19.6678  0.000730652
      19.5248  0.000827431
      19.3819  0.000937017
      19.2389    0.0010611
       19.096    0.0012016
       18.953   0.00136069
      18.8101   0.00154082
      18.6671   0.00174477
      18.5242   0.00197569
      18.3812   0.00223714
      18.2382   0.00253316
      18.0953    0.0028683
      17.9523   0.00324775
      17.8094   0.00367734
      17.6664   0.00416369
      17.5235   0.00471431
      17.3805   0.00533766
      17.2376   0.00604336
      17.0946   0.00684227
      16.9516   0.00774668
      16.8087   0.00877051
      16.6657   0.00992952
      16.5228    0.0112415
      16.3798    0.0127267
      16.2369     0.014408
      16.0939     0.016311
       15.951    0.0184652
       15.808    0.0209036
       15.665    0.0236637
      15.5221    0.0267879
      15.3791     0.030324
      15.2362    0.0343265
      15.0932    0.0388567
      14.9503    0.0439841
      14.8073    0.0497875
      14.6644    0.0563557
      14.5214    0.0637896
      14.3784     0.072203
      14.2355    0.0817249
      14.0925    0.0925012
      13.9496     0.104697
      13.8066     0.118499
      13.6637     0.134118
      13.5207     0.151795
      13.3778     0.171798
      13.2348     0.194434
      13.0919      0.22005
      12.9489     0.249037
      12.8059     0.281838
       12.663     0.318955
        12.52     0.360955
      12.3771     0.408479
      12.2341     0.462253
      12.0912     0.523099
      11.9482     0.591944
      11.8053     0.669841
      11.6623     0.757977
      11.5193     0.857697
      11.3764     0.970521
      11.2334      1.09817
      11.0905      1.24259
      10.9475      1.40598
      10.8046      1.59083
      10.6616      1.79996
      10.5187      2.03655
      10.3757       2.3042
      10.2327      2.60698
      10.0898      2.94951
      9.94683      3.33699
      9.80388      3.77532
      9.66092      4.27115
      9.51797      4.83204
      9.37501      5.46649
      9.23206      6.18415
       9.0891      6.99591
      8.94615      7.91411
      8.80319      8.95269
      8.66023      10.1274
      8.51728       11.456
      8.37432      12.9588
      8.23137      14.6585
      8.08841      16.5808
      7.94546      18.7549
       7.8025      21.2138
      7.65955      23.9946
      7.51659      27.1395
      7.37364      30.6962
      7.23068      34.7184
      7.08773       39.267
      6.94477      44.4107
      6.80182      50.2275
      6.65886      56.8052
       6.5159      64.2433
      6.37295      72.6542
      6.22999      82.1649
      6.08704       92.919
      5.94408      105.079
      5.80113      118.828
      5.65817      134.374
      5.51522      151.952
      5.37226      171.826
      5.22931      194.296
      5.08635      219.701
       4.9434      248.424
      4.80044      280.896
      4.65749      317.609
      4.51453      359.113
      4.37157      406.034
      4.22862      459.078
      4.08566      519.042
      3.94271      586.829
      3.79975      663.458
       3.6568      750.081
      3.51384      847.998
      3.37089      958.681
      3.22793      1083.79
      3.08498      1225.21
      2.94202      1385.05
      2.79907      1565.73
      2.65611      1769.94
      2.51315      2000.75
       2.3702      2261.61
      2.22724      2556.45
      2.08429      2889.67
      1.94133      3266.27
      1.79838      3691.88
      1.65542      4172.88
      1.51247      4716.47
      1.36951      5330.77
      1.22656      6024.97
       1.0836      6809.45
     0.940646      7695.94
     0.797691      8697.68
     0.654735      9829.63
      0.51178      11108.7
     0.368825        12554
     0.225869        14187
    0.0829141      16032.2
   -0.0600412      18117.1
    -0.202997      20472.6
    -0.345952      23134.1
    -0.488907        26141
    -0.631863      29538.2
    -0.774818      33376.3
    -0.917773      37712.4
     -1.06073      42611.1
     -1.20368      48145.1
     -1.34664      54396.9
     -1.48959      61459.3
     -1.63255      69437.3
     -1.77551      78449.5
     -1.91846      88629.6
     -2.06142       100129
     -2.20437       113118
     -2.34733       127790
     -2.49028       144362
     -2.63324       163080
     -2.77619       184221
     -2.91915       208099
      -3.0621       235068
     -3.20506       265527
     -3.34801       299926
     -3.49097       338775
     -3.63392       382649
     -3.77688       432196
     -3.91984       488149
     -4.06279       551335
     -4.20575       622687
      -4.3487       703260
     -4.49166       794243
     -4.63461       896979
     -4.77757  1.01298e+06
     -4.92052  1.14397e+06
     -5.06348  1.29186e+06
     -5.20643  1.45885e+06
     -5.34939  1.64739e+06
     -5.49234  1.86025e+06
      -5.6353  2.10058e+06
     -5.77826  2.37191e+06
     -5.92121  2.67823e+06
     -6.06417  3.02404e+06
     -6.20712  3.41444e+06
     -6.35008  3.85517e+06
     -6.49303  4.35269e+06
     -6.63599  4.91431e+06
     -6.77894  5.54829e+06
      -6.9219  6.26393e+06
     -7.06485  7.07172e+06
     -7.20781  7.98352e+06
     -7.35076   9.0127e+06
     -7.49372  1.01743e+07
     -7.63667  1.14855e+07
     -7.77963  1.29652e+07
     -7.92259  1.46354e+07
     -8.06554  1.65203e+07
      -8.2085  1.86476e+07
     -8.35145  2.10484e+07
     -8.49441  2.37578e+07
     -8.63736  2.68153e+07
     -8.78032  3.02657e+07
     -8.92327  3.41593e+07
     -9.06623  3.85529e+07
     -9.20918  4.35107e+07
     -9.35214  4.91051e+07
     -9.49509  5.54175e+07
     -9.63805  6.25399e+07
       -9.781  7.05763e+07
     -9.92396  7.96435e+07
     -10.0669  8.98736e+07
     -10.2099  1.01416e+08
     -10.3528  1.14437e+08
     -10.4958  1.29128e+08
     -10.6387  1.45702e+08
     -10.7817  1.64399e+08
     -10.9246  1.85491e+08
     -11.0676  2.09284e+08
     -11.2106  2.36125e+08
     -11.3535  2.66401e+08
     -11.4965  3.00553e+08
     -11.6394  3.39075e+08
     -11.7824  3.82526e+08
     -11.9253  4.31536e+08
     -12.0683  4.86813e+08
     -12.2112  5.49158e+08
     -12.3542  6.19473e+08
     -12.4972  6.98775e+08
     -12.6401   7.8821e+08
     -12.7831   8.8907e+08
      -12.926  1.00281e+09
      -13.069  1.13108e+09
     -13.2119  1.27573e+09
     -13.3549  1.43884e+09
     -13.4978  1.62276e+09
     -13.6408  1.83016e+09
     -13.7838    2.064e+09
     -13.9267  2.32768e+09
     -14.0697  2.62497e+09
     -14.2126  2.96016e+09
     -14.3556  3.33807e+09
     -14.4985  3.76414e+09
     -14.6415  4.24449e+09
     -14.7844  4.78602e+09
     -14.9274  5.39652e+09
     -15.0704  6.08474e+09
     -15.2133  6.86055e+09
     -15.3563  7.73511e+09
     -15.4992  8.72093e+09
     -15.6422  9.83214e+09
     -15.7851  1.10847e+10
     -15.9281  1.24965e+10
      -16.071  1.40877e+10
      -16.214  1.58812e+10
      -16.357  1.79025e+10
     -16.4999  2.01806e+10
     -16.6429  2.27481e+10
     -16.7858  2.56414e+10
     -16.9288  2.89021e+10
     -17.0717  3.25765e+10
     -17.2147  3.67172e+10
     -17.3576  4.13831e+10
     -17.5006  4.66407e+10
     -17.6435  5.25649e+10
     -17.7865    5.924e+10
     -17.9295  6.67612e+10
     -18.0724  7.52351e+10
     -18.2154  8.47825e+10
     -18.3583  9.55389e+10
     -18.5013  1.07657e+11
     -18.6442  1.21309e+11
     -18.7872  1.36689e+11
     -18.9301  1.54014e+11
     -19.0731  1.73531e+11
     -19.2161  1.95516e+11
      -19.359  2.20281e+11
      -19.502  2.48175e+11
     -19.6449  2.79595e+11
     -19.7879  3.14983e+11
     -19.9308  3.54841e+11
     -20.0738  3.99732e+11
     -20.2167   4.5029e+11
     -20.3597  5.07229e+11
     -20.5027  5.71352e+11
     -20.6456  6.43563e+11
     -20.7886   7.2488e+11
     -20.9315   8.1645e+11
     -21.0745  9.19561e+11
     -21.2174  1.03566e+12
     -21.3604  1.16639e+12
     -21.5033  1.31359e+12
     -21.6463  1.47931e+12
     -21.7893   1.6659e+12
     -21.9322  1.87597e+12
     -22.0752  2.11247e+12
     -22.2181  2.37871e+12
     -22.3611  2.67844e+12
      -22.504  3.01584e+12
      -22.647  3.39564e+12
     -22.7899  3.82317e+12
     -22.9329   4.3044e+12
     -23.0759  4.84605e+12
     -23.2188   5.4557e+12
     -23.3618  6.14189e+12
     -23.5047  6.91417e+12
     -23.6477  7.78333e+12
     -23.7906  8.76149e+12
     -23.9336   9.8623e+12
     -24.0765  1.11011e+13
     -24.2195  1.24951e+13
     -24.3625  1.40637e+13
     -24.5054  1.58288e+13
     -24.6484  1.78149e+13
     -24.7913  2.00496e+13
     -24.9343  2.25639e+13
     -25.0772  2.53927e+13
     -25.2202  2.85754e+13
     -25.3631  3.21559e+13
     -25.5061  3.61838e+13
      -25.649   4.0715e+13
      -25.792  4.58122e+13
      -25.935   5.1546e+13
     -26.0779  5.79954e+13
     -26.2209  6.52498e+13
     -26.3638  7.34094e+13
     -26.5068  8.25868e+13
     -26.6497  9.29084e+13
     -26.7927  1.04517e+14
     -26.9356  1.17571e+14
     -27.0786  1.32253e+14
     -27.2216  1.48762e+14
     -27.3645  1.67327e+14
     -27.5075  1.88203e+14
     -27.6504  2.11677e+14
     -27.7934  2.38071e+14
     -27.9363  2.67747e+14
     -28.0793  3.01112e+14
     -28.2222  3.38625e+14
     -28.3652  3.80799e+14
     -28.5082  4.28211e+14
     -28.6511  4.81509e+14
     -28.7941  5.41424e+14
      -28.937  6.08775e+14
       -29.08  6.84479e+14
     -29.2229  7.69572e+14
     -29.3659  8.65214e+14
     -29.5088   9.7271e+14
     -29.6518  1.09352e+15
     -29.7948  1.22929e+15
     -29.9377  1.38187e+15
     -30.0807  1.55334e+15
     -30.2236  1.74602e+15
     -30.3666  1.96252e+15
     -30.5095   2.2058e+15
     -30.6525  2.47916e+15
     -30.7954  2.78629e+15
     -30.9384  3.13135e+15
     -31.0814  3.51903e+15
     -31.2243  3.95455e+15
     -31.3673  4.44382e+15
     -31.5102  4.99344e+15
     -31.6532  5.61082e+15
     -31.7961  6.30432e+15
     -31.9391  7.08331e+15
      -32.082  7.95824e+15
      -32.225  8.94093e+15
     -32.3679  1.00446e+16
     -32.5109  1.12841e+16
     -32.6539  1.26762e+16
     -32.7968  1.42393e+16
     -32.9398  1.59947e+16
     -33.0827  1.79658e+16
     -33.2257  2.01791e+16
     -33.3686  2.26641e+16
     -33.5116  2.54543e+16
     -33.6545  2.85868e+16
     -33.7975  3.21037e+16
     -33.9405  3.60517e+16
     -34.0834  4.04836e+16
     -34.2264  4.54584e+16
     -34.3693  5.10428e+16
     -34.5123  5.73106e+16
     -34.6552  6.43455e+16
     -34.7982  7.22413e+16
     -34.9411   8.1103e+16
     -35.0841  9.10481e+16
     -35.2271  1.02208e+17
       -35.37  1.14732e+17
      -35.513  1.28785e+17
     -35.6559  1.44554e+17
     -35.7989  1.62246e+17
     -35.9418  1.82096e+17
     -36.0848  2.04367e+17
     -36.2277  2.29353e+17
     -36.3707  2.57383e+17
     -36.5137  2.88828e+17
     -36.6566  3.24101e+17
     -36.7996  3.63669e+17
     -36.9425   4.0805e+17
     -37.0855  4.57827e+17
     -37.2284  5.13653e+17
     -37.3714  5.76267e+17
     -37.5143  6.46484e+17
     -37.6573  7.25226e+17
     -37.8003  8.13525e+17
     -37.9432  9.12533e+17
     -38.0862  1.02355e+18
     -38.2291  1.14802e+18
     -38.3721  1.28756e+18
      -38.515    1.444e+18
      -38.658  1.61938e+18
     -38.8009  1.81596e+18
     -38.9439  2.03632e+18
     -39.0869  2.28332e+18
     -39.2298  2.56019e+18
     -39.3728   2.8705e+18
     -39.5157  3.21826e+18
     -39.6587  3.60798e+18
     -39.8016  4.04473e+18
     -39.9446  4.53413e+18
     -40.0875  5.08249e+18
     -40.2305   5.6969e+18
     -40.3734  6.38532e+18
     -40.5164  7.15665e+18
     -40.6594  8.02076e+18
     -40.8023   8.9888e+18
     -40.9453  1.00732e+19
     -41.0882   1.1288e+19
     -41.2312  1.26487e+19
     -41.3741  1.41727e+19
     -41.5171  1.58795e+19
       -41.66  1.77912e+19
      -41.803  1.99319e+19
      -41.946  2.23292e+19
     -42.0889  2.50137e+19
     -42.2319  2.80195e+19
     -42.3748  3.13852e+19
     -42.5178   3.5153e+19
     -42.6607  3.93709e+19
     -42.8037  4.40927e+19
     -42.9466  4.93786e+19
     -43.0896  5.52946e+19
     -43.2326  6.19163e+19
     -43.3755  6.93276e+19
     -43.5185  7.76231e+19
     -43.6614  8.69063e+19
     -43.8044  9.72944e+19
     -43.9473  1.08919e+20
     -44.0903  1.21925e+20
     -44.2332  1.36478e+20
     -44.3762  1.52758e+20
     -44.5192  1.70971e+20
     -44.6621  1.91346e+20
     -44.8051  2.14142e+20
      -44.948  2.39639e+20
      -45.091  2.68158e+20
     -45.2339  3.00057e+20
     -45.3769  3.35737e+20
     -45.5198  3.75638e+20
     -45.6628  4.20253e+20
     -45.8058  4.70143e+20
     -45.9487  5.25936e+20
     -46.0917  5.88308e+20
     -46.2346  6.58045e+20
     -46.3776  7.36006e+20
     -46.5205  8.23161e+20
     -46.6635  9.20595e+20
     -46.8064  1.02948e+21
     -46.9494  1.15117e+21
     -47.0924  1.28716e+21
     -47.2353  1.43915e+21
     -47.3783  1.60895e+21
     -47.5212  1.79868e+21
     -47.6642  2.01068e+21
     -47.8071  2.24759e+21
     -47.9501  2.51224e+21
      -48.093  2.80786e+21
      -48.236   3.1381e+21
     -48.3789  3.50696e+21
     -48.5219  3.91893e+21
     -48.6649  4.37901e+21
     -48.8078  4.89272e+21
     -48.9508  5.46649e+21
     -49.0937  6.10729e+21
     -49.2367  6.82266e+21
     -49.3796  7.62141e+21
     -49.5226  8.51325e+21
     -49.6655  9.50912e+21
     -49.8085  1.06206e+22
     -49.9515  1.18612e+22
     -50.0944  1.32458e+22
