Temperature = 1612.97K
THERMAL DISTRIBUTIONS:
  E, kcal/mol           W1
        141.7    0.0660437
      141.557    0.0686029
      141.414    0.0712611
      141.271     0.074022
      141.128    0.0768895
      140.985    0.0798679
      140.842    0.0829613
        140.7    0.0861743
      140.557    0.0895113
      140.414    0.0929773
      140.271     0.096577
      140.128     0.100316
      139.985     0.104199
      139.842     0.108232
      139.699     0.112421
      139.556     0.116771
      139.413     0.121289
       139.27     0.125982
      139.127     0.130856
      138.984     0.135918
      138.841     0.141175
      138.698     0.146635
      138.555     0.152305
      138.412     0.158194
      138.269     0.164311
      138.126     0.170663
      137.983      0.17726
       137.84     0.184111
      137.697     0.191226
      137.554     0.198616
      137.412     0.206291
      137.269     0.214261
      137.126     0.222538
      136.983     0.231134
       136.84     0.240062
      136.697     0.249333
      136.554     0.258961
      136.411      0.26896
      136.268     0.279344
      136.125     0.290128
      135.982     0.301328
      135.839     0.312958
      135.696     0.325036
      135.553     0.337578
       135.41     0.350604
      135.267      0.36413
      135.124     0.378177
      134.981     0.392765
      134.838     0.407913
      134.695     0.423644
      134.552     0.439981
      134.409     0.456945
      134.267     0.474561
      134.124     0.492855
      133.981     0.511852
      133.838      0.53158
      133.695     0.552065
      133.552     0.573338
      133.409     0.595428
      133.266     0.618367
      133.123     0.642187
       132.98     0.666922
      132.837     0.692607
      132.694     0.719278
      132.551     0.746974
      132.408     0.775733
      132.265     0.805596
      132.122     0.836606
      131.979     0.868805
      131.836     0.902241
      131.693     0.936959
       131.55      0.97301
      131.407      1.01044
      131.264      1.04931
      131.122      1.08967
      130.979      1.13158
      130.836       1.1751
      130.693      1.22028
       130.55       1.2672
      130.407      1.31592
      130.264       1.3665
      130.121      1.41902
      129.978      1.47356
      129.835      1.53018
      129.692      1.58897
      129.549      1.65002
      129.406      1.71341
      129.263      1.77922
       129.12      1.84755
      128.977       1.9185
      128.834      1.99217
      128.691      2.06865
      128.548      2.14807
      128.405      2.23052
      128.262      2.31613
      128.119      2.40502
      127.976      2.49731
      127.834      2.59313
      127.691      2.69261
      127.548       2.7959
      127.405      2.90314
      127.262      3.01448
      127.119      3.13008
      126.976      3.25009
      126.833       3.3747
       126.69      3.50407
      126.547      3.63838
      126.404      3.77783
      126.261       3.9226
      126.118      4.07291
      125.975      4.22895
      125.832      4.39096
      125.689      4.55916
      125.546      4.73378
      125.403      4.91506
       125.26      5.10327
      125.117      5.29867
      124.974      5.50152
      124.831      5.71211
      124.689      5.93074
      124.546      6.15772
      124.403      6.39335
       124.26      6.63797
      124.117      6.89192
      123.974      7.15556
      123.831      7.42925
      123.688      7.71338
      123.545      8.00834
      123.402      8.31455
      123.259      8.63243
      123.116      8.96242
      122.973      9.30499
       122.83      9.66061
      122.687      10.0298
      122.544       10.413
      122.401      10.8108
      122.258      11.2238
      122.115      11.6525
      121.972      12.0976
      121.829      12.5596
      121.686      13.0391
      121.543      13.5369
      121.401      14.0537
      121.258      14.5901
      121.115       15.147
      120.972       15.725
      120.829       16.325
      120.686      16.9478
      120.543      17.5943
        120.4      18.2654
      120.257      18.9621
      120.114      19.6852
      119.971      20.4358
      119.828      21.2149
      119.685      22.0236
      119.542      22.8631
      119.399      23.7344
      119.256      24.6389
      119.113      25.5777
       118.97      26.5521
      118.827      27.5636
      118.684      28.6135
      118.541      29.7032
      118.398      30.8343
      118.256      32.0083
      118.113      33.2269
       117.97      34.4917
      117.827      35.8046
      117.684      37.1672
      117.541      38.5815
      117.398      40.0494
      117.255       41.573
      117.112      43.1544
      116.969      44.7958
      116.826      46.4993
      116.683      48.2675
       116.54      50.1026
      116.397      52.0073
      116.254      53.9842
      116.111      56.0359
      115.968      58.1654
      115.825      60.3755
      115.682      62.6693
      115.539        65.05
      115.396      67.5208
      115.253      70.0852
      115.111      72.7466
      114.968      75.5087
      114.825      78.3753
      114.682      81.3505
      114.539      84.4381
      114.396      87.6426
      114.253      90.9682
       114.11      94.4197
      113.967      98.0016
      113.824      101.719
      113.681      105.577
      113.538      109.581
      113.395      113.736
      113.252      118.048
      113.109      122.522
      112.966      127.166
      112.823      131.986
       112.68      136.987
      112.537      142.177
      112.394      147.564
      112.251      153.153
      112.108      158.954
      111.965      164.973
      111.823       171.22
       111.68      177.702
      111.537      184.429
      111.394       191.41
      111.251      198.654
      111.108      206.171
      110.965      213.972
      110.822      222.067
      110.679      230.467
      110.536      239.183
      110.393      248.228
       110.25      257.614
      110.107      267.353
      109.964       277.46
      109.821      287.947
      109.678      298.829
      109.535      310.121
      109.392      321.838
      109.249      333.996
      109.106      346.611
      108.963      359.702
       108.82      373.285
      108.678      387.379
      108.535      402.004
      108.392      417.178
      108.249      432.924
      108.106      449.261
      107.963      466.213
       107.82      483.802
      107.677      502.052
      107.534      520.988
      107.391      540.636
      107.248      561.022
      107.105      582.174
      106.962      604.121
      106.819      626.892
      106.676      650.517
      106.533       675.03
       106.39      700.464
      106.247      726.852
      106.104       754.23
      105.961      782.636
      105.818      812.108
      105.675      842.685
      105.532       874.41
       105.39      907.324
      105.247      941.473
      105.104      976.902
      104.961      1013.66
      104.818      1051.79
      104.675      1091.36
      104.532      1132.41
      104.389      1174.99
      104.246      1219.17
      104.103      1265.01
       103.96      1312.56
      103.817      1361.89
      103.674      1413.07
      103.531      1466.17
      103.388      1521.25
      103.245       1578.4
      103.102      1637.68
      102.959      1699.18
      102.816      1762.99
      102.673      1829.18
       102.53      1897.84
      102.387      1969.07
      102.245      2042.97
      102.102      2119.62
      101.959      2199.15
      101.816      2281.64
      101.673      2367.22
       101.53         2456
      101.387      2548.09
      101.244      2643.62
      101.101      2742.71
      100.958      2845.51
      100.815      2952.15
      100.672      3062.77
      100.529      3177.51
      100.386      3296.54
      100.243      3420.01
        100.1      3548.08
      99.9572      3680.93
      99.8143      3818.74
      99.6713      3961.68
      99.5284      4109.96
      99.3854      4263.76
      99.2425      4423.29
      99.0995      4588.77
      98.9566      4760.42
      98.8136      4938.46
      98.6706      5123.13
      98.5277      5314.68
      98.3847      5513.37
      98.2418      5719.45
      98.0988       5933.2
      97.9559      6154.91
      97.8129      6384.87
        97.67      6623.38
       97.527      6870.77
       97.384      7127.37
      97.2411       7393.5
      97.0981      7669.54
      96.9552      7955.84
      96.8122      8252.78
      96.6693      8560.75
      96.5263      8880.18
      96.3834      9211.47
      96.2404      9555.07
      96.0974      9911.44
      95.9545        10281
      95.8115      10664.4
      95.6686      11061.9
      95.5256      11474.2
      95.3827      11901.9
      95.2397      12345.4
      95.0968      12805.3
      94.9538      13282.3
      94.8108        13777
      94.6679      14290.1
      94.5249      14822.2
       94.382        15374
       94.239      15946.2
      94.0961      16539.7
      93.9531      17155.2
      93.8102      17793.5
      93.6672      18455.4
      93.5242      19141.8
      93.3813      19853.7
      93.2383      20591.9
      93.0954      21357.5
      92.9524      22151.4
      92.8095      22974.7
      92.6665      23828.4
      92.5236      24713.8
      92.3806      25631.9
      92.2376      26583.9
      92.0947      27571.2
      91.9517      28594.9
      91.8088      29656.6
      91.6658      30757.4
      91.5229      31898.9
      91.3799      33082.7
       91.237      34310.1
       91.094      35582.9
      90.9511      36902.7
      90.8081      38271.3
      90.6651      39690.3
      90.5222      41161.8
      90.3792      42687.6
      90.2363      44269.7
      90.0933      45910.1
      89.9504      47611.1
      89.8074      49374.8
      89.6645      51203.5
      89.5215      53099.7
      89.3785      55065.8
      89.2356      57104.4
      89.0926      59218.1
      88.9497      61409.6
      88.8067        63682
      88.6638        66038
      88.5208      68480.8
      88.3779      71013.5
      88.2349      73639.5
      88.0919      76362.2
       87.949        79185
       87.806      82111.8
      87.6631      85146.2
      87.5201      88292.2
      87.3772        91554
      87.2342      94935.7
      87.0913      98441.7
      86.9483       102077
      86.8053       105845
      86.6624       109752
      86.5194       113803
      86.3765       118002
      86.2335       122356
      86.0906       126869
      85.9476       131548
      85.8047       136399
      85.6617       141428
      85.5187       146642
      85.3758       152046
      85.2328       157649
      85.0899       163458
      84.9469       169480
       84.804       175722
       84.661       182193
      84.5181       188902
      84.3751       195856
      84.2321       203065
      84.0892       210538
      83.9462       218285
      83.8033       226315
      83.6603       234640
      83.5174       243269
      83.3744       252214
      83.2315       261486
      83.0885       271098
      82.9456       281061
      82.8026       291388
      82.6596       302094
      82.5167       313190
      82.3737       324692
      82.2308       336615
      82.0878       348973
      81.9449       361783
      81.8019       375061
       81.659       388823
       81.516       403088
       81.373       417874
      81.2301       433199
      81.0871       449084
      80.9442       465548
      80.8012       482613
      80.6583       500301
      80.5153       518633
      80.3724       537634
      80.2294       557327
      80.0864       577738
      79.9435       598893
      79.8005       620818
      79.6576       643543
      79.5146       667094
      79.3717       691504
      79.2287       716802
      79.0858       743020
      78.9428       770193
      78.7998       798355
      78.6569       827541
      78.5139       857788
       78.371       889136
       78.228       921623
      78.0851       955291
      77.9421       990183
      77.7992  1.02634e+06
      77.6562  1.06382e+06
      77.5132  1.10265e+06
      77.3703  1.14289e+06
      77.2273   1.1846e+06
      77.0844  1.22782e+06
      76.9414  1.27261e+06
      76.7985  1.31902e+06
      76.6555  1.36712e+06
      76.5126  1.41696e+06
      76.3696  1.46861e+06
      76.2267  1.52213e+06
      76.0837  1.57759e+06
      75.9407  1.63507e+06
      75.7978  1.69462e+06
      75.6548  1.75634e+06
      75.5119  1.82028e+06
      75.3689  1.88655e+06
       75.226  1.95521e+06
       75.083  2.02636e+06
      74.9401  2.10009e+06
      74.7971  2.17648e+06
      74.6541  2.25564e+06
      74.5112  2.33766e+06
      74.3682  2.42264e+06
      74.2253   2.5107e+06
      74.0823  2.60195e+06
      73.9394  2.69649e+06
      73.7964  2.79445e+06
      73.6535  2.89594e+06
      73.5105  3.00111e+06
      73.3675  3.11007e+06
      73.2246  3.22296e+06
      73.0816  3.33993e+06
      72.9387  3.46112e+06
      72.7957  3.58669e+06
      72.6528  3.71679e+06
      72.5098  3.85158e+06
      72.3669  3.99123e+06
      72.2239  4.13591e+06
      72.0809  4.28581e+06
       71.938  4.44112e+06
       71.795  4.60202e+06
      71.6521  4.76871e+06
      71.5091  4.94141e+06
      71.3662  5.12033e+06
      71.2232   5.3057e+06
      71.0803  5.49773e+06
      70.9373  5.69668e+06
      70.7943  5.90278e+06
      70.6514   6.1163e+06
      70.5084   6.3375e+06
      70.3655  6.56665e+06
      70.2225  6.80404e+06
      70.0796  7.04997e+06
      69.9366  7.30473e+06
      69.7937  7.56864e+06
      69.6507  7.84204e+06
      69.5077  8.12525e+06
      69.3648  8.41864e+06
      69.2218  8.72255e+06
      69.0789  9.03737e+06
      68.9359  9.36349e+06
       68.793  9.70131e+06
        68.65  1.00513e+07
      68.5071  1.04137e+07
      68.3641  1.07892e+07
      68.2212  1.11782e+07
      68.0782   1.1581e+07
      67.9352  1.19984e+07
      67.7923  1.24306e+07
      67.6493  1.28784e+07
      67.5064  1.33421e+07
      67.3634  1.38225e+07
      67.2205  1.43201e+07
      67.0775  1.48355e+07
      66.9346  1.53693e+07
      66.7916  1.59222e+07
      66.6486  1.64949e+07
      66.5057   1.7088e+07
      66.3627  1.77024e+07
      66.2198  1.83387e+07
      66.0768  1.89977e+07
      65.9339  1.96803e+07
      65.7909  2.03873e+07
       65.648  2.11195e+07
       65.505  2.18778e+07
       65.362  2.26632e+07
      65.2191  2.34766e+07
      65.0761  2.43191e+07
      64.9332  2.51916e+07
      64.7902  2.60952e+07
      64.6473   2.7031e+07
      64.5043  2.80001e+07
      64.3614  2.90038e+07
      64.2184  3.00433e+07
      64.0754  3.11197e+07
      63.9325  3.22345e+07
      63.7895   3.3389e+07
      63.6466  3.45846e+07
      63.5036  3.58227e+07
      63.3607  3.71049e+07
      63.2177  3.84326e+07
      63.0748  3.98076e+07
      62.9318  4.12315e+07
      62.7888  4.27059e+07
      62.6459  4.42328e+07
      62.5029  4.58139e+07
        62.36  4.74511e+07
       62.217  4.91465e+07
      62.0741  5.09021e+07
      61.9311    5.272e+07
      61.7882  5.46024e+07
      61.6452  5.65516e+07
      61.5022  5.85699e+07
      61.3593  6.06598e+07
      61.2163  6.28238e+07
      61.0734  6.50644e+07
      60.9304  6.73845e+07
      60.7875  6.97868e+07
      60.6445  7.22741e+07
      60.5016  7.48495e+07
      60.3586  7.75161e+07
      60.2157  8.02771e+07
      60.0727  8.31357e+07
      59.9297  8.60955e+07
      59.7868  8.91599e+07
      59.6438  9.23327e+07
      59.5009  9.56177e+07
      59.3579  9.90188e+07
       59.215   1.0254e+08
       59.072  1.06186e+08
      58.9291   1.0996e+08
      58.7861  1.13868e+08
      58.6431  1.17913e+08
      58.5002  1.22101e+08
      58.3572  1.26437e+08
      58.2143  1.30927e+08
      58.0713  1.35574e+08
      57.9284  1.40385e+08
      57.7854  1.45366e+08
      57.6425  1.50522e+08
      57.4995   1.5586e+08
      57.3565  1.61386e+08
      57.2136  1.67106e+08
      57.0706  1.73028e+08
      56.9277  1.79158e+08
      56.7847  1.85504e+08
      56.6418  1.92073e+08
      56.4988  1.98874e+08
      56.3559  2.05913e+08
      56.2129  2.13199e+08
      56.0699  2.20742e+08
       55.927   2.2855e+08
       55.784  2.36632e+08
      55.6411  2.44998e+08
      55.4981  2.53657e+08
      55.3552   2.6262e+08
      55.2122  2.71898e+08
      55.0693  2.81501e+08
      54.9263  2.91441e+08
      54.7833   3.0173e+08
      54.6404  3.12379e+08
      54.4974  3.23401e+08
      54.3545   3.3481e+08
      54.2115  3.46618e+08
      54.0686  3.58839e+08
      53.9256  3.71488e+08
      53.7827   3.8458e+08
      53.6397   3.9813e+08
      53.4967  4.12154e+08
      53.3538  4.26668e+08
      53.2108   4.4169e+08
      53.0679  4.57237e+08
      52.9249  4.73327e+08
       52.782  4.89979e+08
       52.639  5.07212e+08
      52.4961  5.25047e+08
      52.3531  5.43505e+08
      52.2102  5.62607e+08
      52.0672  5.82375e+08
      51.9242  6.02832e+08
      51.7813  6.24003e+08
      51.6383  6.45912e+08
      51.4954  6.68584e+08
      51.3524  6.92046e+08
      51.2095  7.16325e+08
      51.0665   7.4145e+08
      50.9236  7.67449e+08
      50.7806  7.94353e+08
      50.6376  8.22193e+08
      50.4947  8.51001e+08
      50.3517  8.80811e+08
      50.2088  9.11657e+08
      50.0658  9.43575e+08
      49.9229  9.76602e+08
      49.7799  1.01078e+09
       49.637  1.04614e+09
       49.494  1.08273e+09
       49.351  1.12058e+09
      49.2081  1.15975e+09
      49.0651  1.20029e+09
      48.9222  1.24222e+09
      48.7792  1.28561e+09
      48.6363   1.3305e+09
      48.4933  1.37695e+09
      48.3504  1.42501e+09
      48.2074  1.47473e+09
      48.0644  1.52617e+09
      47.9215  1.57939e+09
      47.7785  1.63446e+09
      47.6356  1.69143e+09
      47.4926  1.75037e+09
      47.3497  1.81134e+09
      47.2067  1.87442e+09
      47.0638  1.93969e+09
      46.9208   2.0072e+09
      46.7778  2.07705e+09
      46.6349  2.14931e+09
      46.4919  2.22406e+09
       46.349  2.30139e+09
       46.206  2.38138e+09
      46.0631  2.46414e+09
      45.9201  2.54975e+09
      45.7772   2.6383e+09
      45.6342  2.72991e+09
      45.4913  2.82467e+09
      45.3483   2.9227e+09
      45.2053   3.0241e+09
      45.0624  3.12898e+09
      44.9194  3.23748e+09
      44.7765   3.3497e+09
      44.6335  3.46579e+09
      44.4906  3.58586e+09
      44.3476  3.71005e+09
      44.2047  3.83852e+09
      44.0617  3.97139e+09
      43.9187  4.10882e+09
      43.7758  4.25097e+09
      43.6328    4.398e+09
      43.4899  4.55007e+09
      43.3469  4.70735e+09
       43.204  4.87002e+09
       43.061  5.03826e+09
      42.9181  5.21227e+09
      42.7751  5.39223e+09
      42.6321  5.57835e+09
      42.4892  5.77085e+09
      42.3462  5.96993e+09
      42.2033  6.17581e+09
      42.0603  6.38874e+09
      41.9174  6.60894e+09
      41.7744  6.83666e+09
      41.6315  7.07216e+09
      41.4885  7.31571e+09
      41.3455  7.56756e+09
      41.2026  7.82801e+09
      41.0596  8.09735e+09
      40.9167  8.37587e+09
      40.7737  8.66388e+09
      40.6308  8.96171e+09
      40.4878  9.26969e+09
      40.3449  9.58815e+09
      40.2019  9.91746e+09
      40.0589   1.0258e+10
       39.916  1.06101e+10
       39.773  1.09742e+10
      39.6301  1.13506e+10
      39.4871  1.17399e+10
      39.3442  1.21424e+10
      39.2012  1.25585e+10
      39.0583  1.29888e+10
      38.9153  1.34337e+10
      38.7723  1.38937e+10
      38.6294  1.43693e+10
      38.4864   1.4861e+10
      38.3435  1.53694e+10
      38.2005   1.5895e+10
      38.0576  1.64385e+10
      37.9146  1.70003e+10
      37.7717  1.75812e+10
      37.6287  1.81817e+10
      37.4858  1.88026e+10
      37.3428  1.94444e+10
      37.1998   2.0108e+10
      37.0569  2.07939e+10
      36.9139  2.15031e+10
       36.771  2.22362e+10
       36.628  2.29941e+10
      36.4851  2.37775e+10
      36.3421  2.45874e+10
