Temperature = 1467.95K
THERMAL DISTRIBUTIONS:
  E, kcal/mol           W1
      130.172   0.00960438
      130.029    0.0100175
      129.886    0.0104484
      129.743    0.0108978
        129.6    0.0113665
      129.458    0.0118553
      129.315     0.012365
      129.172    0.0128966
      129.029     0.013451
      128.886    0.0140292
      128.743    0.0146322
        128.6     0.015261
      128.457    0.0159168
      128.314    0.0166008
      128.171     0.017314
      128.028    0.0180578
      127.885    0.0188335
      127.742    0.0196424
      127.599     0.020486
      127.456    0.0213657
      127.313    0.0222831
       127.17    0.0232398
      127.027    0.0242375
      126.884    0.0252779
      126.741    0.0263629
      126.598    0.0274943
      126.455    0.0286741
      126.312    0.0299045
       126.17    0.0311875
      126.027    0.0325255
      125.884    0.0339207
      125.741    0.0353756
      125.598    0.0368928
      125.455    0.0384748
      125.312    0.0401246
      125.169    0.0418449
      125.026    0.0436388
      124.883    0.0455094
       124.74      0.04746
      124.597    0.0494939
      124.454    0.0516149
      124.311    0.0538265
      124.168    0.0561326
      124.025    0.0585373
      123.882    0.0610448
      123.739    0.0636594
      123.596    0.0663857
      123.453    0.0692284
       123.31    0.0721926
      123.167    0.0752835
      123.025    0.0785063
      122.882    0.0818667
      122.739    0.0853706
      122.596    0.0890241
      122.453    0.0928335
       122.31    0.0968056
      122.167     0.100947
      122.024     0.105265
      121.881     0.109768
      121.738     0.114463
      121.595     0.119358
      121.452     0.124461
      121.309     0.129783
      121.166     0.135331
      121.023     0.141116
       120.88     0.147148
      120.737     0.153437
      120.594     0.159994
      120.451      0.16683
      120.308     0.173958
      120.165     0.181389
      120.022     0.189137
      119.879     0.197216
      119.737     0.205638
      119.594     0.214419
      119.451     0.223574
      119.308     0.233119
      119.165     0.243071
      119.022     0.253446
      118.879     0.264263
      118.736      0.27554
      118.593     0.287297
       118.45     0.299555
      118.307     0.312334
      118.164     0.325657
      118.021     0.339547
      117.878     0.354028
      117.735     0.369125
      117.592     0.384864
      117.449     0.401272
      117.306     0.418377
      117.163      0.43621
       117.02     0.454801
      116.877     0.474183
      116.734     0.494388
      116.592     0.515452
      116.449      0.53741
      116.306     0.560302
      116.163     0.584166
       116.02     0.609044
      115.877     0.634979
      115.734     0.662015
      115.591     0.690199
      115.448      0.71958
      115.305     0.750208
      115.162     0.782136
      115.019     0.815419
      114.876     0.850115
      114.733     0.886283
       114.59     0.923985
      114.447     0.963288
      114.304      1.00426
      114.161      1.04696
      114.018      1.09148
      113.875      1.13789
      113.732      1.18626
      113.589      1.23669
      113.447      1.28925
      113.304      1.34404
      113.161      1.40115
      113.018      1.46068
      112.875      1.52274
      112.732      1.58742
      112.589      1.65484
      112.446      1.72512
      112.303      1.79838
       112.16      1.87473
      112.017      1.95432
      111.874      2.03728
      111.731      2.12376
      111.588      2.21389
      111.445      2.30783
      111.302      2.40576
      111.159      2.50782
      111.016       2.6142
      110.873      2.72509
       110.73      2.84066
      110.587      2.96112
      110.444      3.08667
      110.301      3.21753
      110.159      3.35393
      110.016      3.49609
      109.873      3.64426
       109.73      3.79869
      109.587      3.95964
      109.444       4.1274
      109.301      4.30224
      109.158      4.48447
      109.015      4.67439
      108.872      4.87234
      108.729      5.07864
      108.586      5.29365
      108.443      5.51774
        108.3      5.75129
      108.157      5.99469
      108.014      6.24837
      107.871      6.51275
      107.728      6.78828
      107.585      7.07543
      107.442       7.3747
      107.299      7.68659
      107.156      8.01163
      107.014      8.35037
      106.871       8.7034
      106.728       9.0713
      106.585      9.45471
      106.442      9.85428
      106.299      10.2707
      106.156      10.7046
      106.013      11.1569
       105.87      11.6281
      105.727      12.1193
      105.584      12.6311
      105.441      13.1644
      105.298      13.7202
      105.155      14.2994
      105.012       14.903
      104.869       15.532
      104.726      16.1874
      104.583      16.8705
       104.44      17.5822
      104.297      18.3239
      104.154      19.0968
      104.011      19.9022
      103.868      20.7415
      103.726       21.616
      103.583      22.5273
       103.44      23.4769
      103.297      24.4664
      103.154      25.4975
      103.011      26.5719
      102.868      27.6914
      102.725       28.858
      102.582      30.0736
      102.439      31.3401
      102.296      32.6599
      102.153      34.0351
       102.01       35.468
      101.867      36.9611
      101.724      38.5168
      101.581      40.1377
      101.438      41.8267
      101.295      43.5866
      101.152      45.4202
      101.009      47.3307
      100.866      49.3214
      100.723      51.3955
      100.581      53.5566
      100.438      55.8082
      100.295      58.1542
      100.152      60.5986
      100.009      63.1453
      99.8657      65.7987
      99.7228      68.5633
      99.5798      71.4436
      99.4369      74.4446
      99.2939      77.5712
       99.151      80.8287
       99.008      84.2226
      98.8651      87.7585
      98.7221      91.4424
      98.5791      95.2804
      98.4362       99.279
      98.2932      103.445
      98.1503      107.785
      98.0073      112.307
      97.8644      117.017
      97.7214      121.925
      97.5785      127.038
      97.4355      132.364
      97.2926      137.913
      97.1496      143.694
      97.0066      149.717
      96.8637      155.991
      96.7207      162.527
      96.5778      169.336
      96.4348      176.429
      96.2919      183.819
      96.1489      191.517
       96.006      199.536
       95.863       207.89
        95.72      216.593
      95.5771      225.659
      95.4341      235.102
      95.2912       244.94
      95.1482      255.188
      95.0053      265.864
      94.8623      276.984
      94.7194      288.568
      94.5764      300.635
      94.4334      313.205
      94.2905      326.299
      94.1475      339.938
      94.0046      354.145
      93.8616      368.945
      93.7187       384.36
      93.5757      400.417
      93.4328      417.143
      93.2898      434.565
      93.1468      452.713
      93.0039      471.615
      92.8609      491.304
       92.718      511.812
       92.575      533.174
      92.4321      555.424
      92.2891      578.599
      92.1462      602.737
      92.0032       627.88
      91.8602      654.067
      91.7173      681.343
      91.5743      709.752
      91.4314      739.342
      91.2884      770.161
      91.1455       802.26
      91.0025      835.693
      90.8596      870.513
      90.7166       906.78
      90.5736      944.552
      90.4307      983.891
      90.2877      1024.86
      90.1448      1067.54
      90.0018      1111.98
      89.8589      1158.27
      89.7159      1206.47
       89.573      1256.68
        89.43      1308.97
      89.2871      1363.42
      89.1441      1420.14
      89.0011       1479.2
      88.8582      1540.71
      88.7152      1604.77
      88.5723      1671.48
      88.4293      1740.96
      88.2864      1813.31
      88.1434      1888.66
      88.0005      1967.13
      87.8575      2048.85
      87.7145      2133.95
      87.5716      2222.58
      87.4286      2314.86
      87.2857      2410.97
      87.1427      2511.06
      86.9998      2615.28
      86.8568      2723.81
      86.7139      2836.83
      86.5709      2954.52
      86.4279      3077.08
       86.285       3204.7
       86.142       3337.6
      85.9991      3475.98
      85.8561      3620.08
      85.7132      3770.14
      85.5702      3926.39
      85.4273      4089.09
      85.2843      4258.51
      85.1413      4434.92
      84.9984      4618.61
      84.8554      4809.88
      84.7125      5009.05
      84.5695      5216.42
      84.4266      5432.36
      84.2836      5657.19
      84.1407       5891.3
      83.9977      6135.05
      83.8547      6388.86
      83.7118      6653.12
      83.5688      6928.27
      83.4259      7214.76
      83.2829      7513.05
        83.14      7823.62
       82.997      8146.99
      82.8541      8483.66
      82.7111       8834.2
      82.5681      9199.16
      82.4252      9579.14
      82.2822      9974.76
      82.1393      10386.7
      81.9963      10815.5
      81.8534        11262
      81.7104      11726.8
      81.5675      12210.7
      81.4245      12714.6
      81.2816      13239.1
      81.1386      13785.2
      80.9956      14353.7
      80.8527      14945.6
      80.7097      15561.8
      80.5668      16203.3
      80.4238      16871.1
      80.2809      17566.4
      80.1379      18290.1
       79.995      19043.6
       79.852        19828
       79.709      20644.6
      79.5661      21494.7
      79.4231      22379.7
      79.2802      23300.9
      79.1372      24259.9
      78.9943      25258.2
      78.8513      26297.4
      78.7084      27379.2
      78.5654      28505.3
      78.4224      29677.6
      78.2795      30897.9
      78.1365      32168.1
      77.9936      33490.3
      77.8506      34866.7
      77.7077      36299.4
      77.5647      37790.7
      77.4218      39343.1
      77.2788      40958.9
      77.1358      42640.8
      76.9929      44391.5
      76.8499      46213.8
       76.707      48110.6
       76.564      50084.9
      76.4211      52139.9
      76.2781      54278.9
      76.1352      56505.2
      75.9922      58822.5
      75.8492      61234.4
      75.7063      63744.7
      75.5633      66357.6
      75.4204      69077.1
      75.2774      71907.5
      75.1345      74853.5
      74.9915      77919.6
      74.8486      81110.8
      74.7056      84432.2
      74.5626      87888.9
      74.4197      91486.6
      74.2767      95230.9
      74.1338      99127.8
      73.9908       103183
      73.8479       107404
      73.7049       111797
       73.562       116369
       73.419       121127
      73.2761       126078
      73.1331       131231
      72.9901       136594
      72.8472       142175
      72.7042       147982
      72.5613       154027
      72.4183       160316
      72.2754       166862
      72.1324       173674
      71.9895       180762
      71.8465       188139
      71.7035       195815
      71.5606       203803
      71.4176       212115
      71.2747       220765
      71.1317       229766
      70.9888       239133
      70.8458       248879
      70.7029       259021
      70.5599       269575
      70.4169       280556
       70.274       291983
       70.131       303873
      69.9881       316245
      69.8451       329119
      69.7022       342514
      69.5592       356452
      69.4163       370954
      69.2733       386044
      69.1303       401744
      68.9874       418081
      68.8444       435078
      68.7015       452764
      68.5585       471165
      68.4156       490310
      68.2726       510230
      68.1297       530955
      67.9867       552518
      67.8437       574953
      67.7008       598294
      67.5578       622578
      67.4149       647844
      67.2719       674130
       67.129       701478
       66.986       729929
      66.8431       759529
      66.7001       790324
      66.5572       822362
      66.4142       855692
      66.2712       890366
      66.1283       926439
      65.9853       963966
      65.8424  1.00301e+06
      65.6994  1.04362e+06
      65.5565  1.08587e+06
      65.4135  1.12982e+06
      65.2706  1.17554e+06
      65.1276  1.22311e+06
      64.9846  1.27259e+06
      64.8417  1.32406e+06
      64.6987   1.3776e+06
      64.5558   1.4333e+06
      64.4128  1.49124e+06
      64.2699   1.5515e+06
      64.1269   1.6142e+06
       63.984  1.67941e+06
       63.841  1.74724e+06
       63.698   1.8178e+06
      63.5551   1.8912e+06
      63.4121  1.96755e+06
      63.2692  2.04696e+06
      63.1262  2.12956e+06
      62.9833  2.21547e+06
      62.8403  2.30484e+06
      62.6974  2.39779e+06
      62.5544  2.49448e+06
      62.4114  2.59504e+06
      62.2685  2.69963e+06
      62.1255  2.80842e+06
      61.9826  2.92157e+06
      61.8396  3.03926e+06
      61.6967  3.16166e+06
      61.5537  3.28897e+06
      61.4108  3.42138e+06
      61.2678  3.55909e+06
      61.1248  3.70231e+06
      60.9819  3.85127e+06
      60.8389  4.00619e+06
       60.696  4.16731e+06
       60.553  4.33488e+06
      60.4101  4.50915e+06
      60.2671  4.69039e+06
      60.1242  4.87888e+06
      59.9812   5.0749e+06
      59.8382  5.27876e+06
      59.6953  5.49076e+06
      59.5523  5.71123e+06
      59.4094  5.94051e+06
      59.2664  6.17894e+06
      59.1235   6.4269e+06
      58.9805  6.68475e+06
      58.8376  6.95289e+06
      58.6946  7.23173e+06
      58.5517  7.52169e+06
      58.4087  7.82322e+06
      58.2657  8.13677e+06
      58.1228  8.46282e+06
      57.9798  8.80186e+06
      57.8369  9.15442e+06
      57.6939  9.52102e+06
       57.551  9.90222e+06
       57.408  1.02986e+07
      57.2651  1.07108e+07
      57.1221  1.11393e+07
      56.9791  1.15849e+07
      56.8362  1.20483e+07
      56.6932  1.25301e+07
      56.5503   1.3031e+07
      56.4073  1.35519e+07
      56.2644  1.40934e+07
      56.1214  1.46565e+07
      55.9785   1.5242e+07
      55.8355  1.58507e+07
      55.6925  1.64836e+07
      55.5496  1.71416e+07
      55.4066  1.78258e+07
      55.2637  1.85371e+07
      55.1207  1.92766e+07
      54.9778  2.00454e+07
      54.8348  2.08448e+07
      54.6919  2.16758e+07
      54.5489  2.25398e+07
      54.4059  2.34381e+07
       54.263  2.43719e+07
        54.12  2.53427e+07
      53.9771   2.6352e+07
      53.8341  2.74012e+07
      53.6912   2.8492e+07
      53.5482   2.9626e+07
      53.4053  3.08048e+07
      53.2623  3.20302e+07
      53.1193  3.33042e+07
      52.9764  3.46285e+07
      52.8334  3.60051e+07
      52.6905  3.74362e+07
      52.5475  3.89238e+07
      52.4046  4.04702e+07
      52.2616  4.20776e+07
      52.1187  4.37486e+07
      51.9757  4.54855e+07
      51.8327  4.72909e+07
      51.6898  4.91676e+07
      51.5468  5.11183e+07
      51.4039   5.3146e+07
      51.2609  5.52536e+07
       51.118  5.74443e+07
       50.975  5.97214e+07
      50.8321  6.20881e+07
      50.6891  6.45481e+07
      50.5462   6.7105e+07
      50.4032  6.97626e+07
      50.2602  7.25247e+07
      50.1173  7.53956e+07
      49.9743  7.83794e+07
      49.8314  8.14806e+07
      49.6884  8.47038e+07
      49.5455  8.80537e+07
      49.4025  9.15352e+07
      49.2596  9.51536e+07
      49.1166  9.89141e+07
      48.9736  1.02822e+08
      48.8307  1.06884e+08
      48.6877  1.11105e+08
      48.5448  1.15492e+08
      48.4018  1.20051e+08
      48.2589  1.24789e+08
      48.1159  1.29713e+08
       47.973  1.34829e+08
        47.83  1.40146e+08
       47.687  1.45672e+08
      47.5441  1.51414e+08
      47.4011  1.57381e+08
      47.2582  1.63582e+08
      47.1152  1.70026e+08
      46.9723  1.76721e+08
      46.8293  1.83679e+08
      46.6864  1.90909e+08
      46.5434  1.98422e+08
      46.4004  2.06228e+08
      46.2575  2.14339e+08
      46.1145  2.22768e+08
      45.9716  2.31526e+08
      45.8286  2.40626e+08
      45.6857  2.50081e+08
      45.5427  2.59906e+08
      45.3998  2.70114e+08
      45.2568   2.8072e+08
      45.1138   2.9174e+08
      44.9709  3.03189e+08
      44.8279  3.15086e+08
       44.685  3.27445e+08
       44.542  3.40287e+08
      44.3991  3.53629e+08
      44.2561   3.6749e+08
      44.1132  3.81891e+08
      43.9702  3.96853e+08
      43.8273  4.12397e+08
      43.6843  4.28546e+08
      43.5413  4.45323e+08
      43.3984  4.62752e+08
      43.2554  4.80859e+08
      43.1125   4.9967e+08
      42.9695  5.19211e+08
      42.8266  5.39512e+08
      42.6836  5.60601e+08
      42.5407  5.82508e+08
      42.3977  6.05266e+08
      42.2547  6.28907e+08
      42.1118  6.53465e+08
      41.9688  6.78976e+08
      41.8259  7.05475e+08
      41.6829  7.33002e+08
        41.54  7.61595e+08
       41.397  7.91296e+08
      41.2541  8.22147e+08
      41.1111  8.54193e+08
      40.9681  8.87478e+08
      40.8252  9.22052e+08
      40.6822  9.57964e+08
      40.5393  9.95264e+08
      40.3963  1.03401e+09
      40.2534  1.07425e+09
      40.1104  1.11604e+09
      39.9675  1.15945e+09
      39.8245  1.20454e+09
      39.6815  1.25136e+09
      39.5386      1.3e+09
      39.3956  1.35051e+09
      39.2527  1.40297e+09
      39.1097  1.45745e+09
      38.9668  1.51403e+09
      38.8238  1.57279e+09
      38.6809  1.63382e+09
      38.5379   1.6972e+09
      38.3949  1.76302e+09
       38.252  1.83137e+09
       38.109  1.90235e+09
      37.9661  1.97607e+09
      37.8231  2.05262e+09
      37.6802  2.13211e+09
      37.5372  2.21466e+09
      37.3943  2.30038e+09
      37.2513   2.3894e+09
      37.1083  2.48183e+09
      36.9654  2.57782e+09
      36.8224  2.67748e+09
      36.6795  2.78097e+09
      36.5365  2.88844e+09
      36.3936  3.00002e+09
      36.2506  3.11588e+09
      36.1077  3.23618e+09
      35.9647   3.3611e+09
      35.8218  3.49079e+09
      35.6788  3.62546e+09
      35.5358  3.76528e+09
      35.3929  3.91044e+09
      35.2499  4.06117e+09
       35.107  4.21766e+09
       34.964  4.38013e+09
      34.8211  4.54881e+09
      34.6781  4.72394e+09
      34.5352  4.90575e+09
      34.3922  5.09451e+09
      34.2492  5.29048e+09
      34.1063  5.49393e+09
      33.9633  5.70513e+09
      33.8204   5.9244e+09
      33.6774  6.15202e+09
      33.5345  6.38832e+09
      33.3915  6.63363e+09
      33.2486  6.88827e+09
      33.1056  7.15262e+09
      32.9626  7.42703e+09
      32.8197  7.71188e+09
      32.6767  8.00757e+09
      32.5338  8.31451e+09
      32.3908  8.63312e+09
      32.2479  8.96383e+09
      32.1049  9.30712e+09
       31.962  9.66344e+09
       31.819  1.00333e+10
       31.676  1.04172e+10
      31.5331  1.08156e+10
      31.3901  1.12292e+10
      31.2472  1.16585e+10
      31.1042   1.2104e+10
      30.9613  1.25664e+10
      30.8183  1.30464e+10
      30.6754  1.35445e+10
      30.5324  1.40615e+10
      30.3894   1.4598e+10
      30.2465  1.51549e+10
      30.1035  1.57328e+10
      29.9606  1.63325e+10
      29.8176   1.6955e+10
      29.6747  1.76009e+10
      29.5317  1.82713e+10
      29.3888  1.89669e+10
      29.2458  1.96888e+10
      29.1028   2.0438e+10
      28.9599  2.12154e+10
      28.8169  2.20222e+10
       28.674  2.28593e+10
       28.531   2.3728e+10
      28.3881  2.46295e+10
      28.2451  2.55648e+10
      28.1022  2.65354e+10
      27.9592  2.75426e+10
      27.8163  2.85876e+10
      27.6733  2.96719e+10
      27.5303  3.07969e+10
      27.3874  3.19643e+10
      27.2444  3.31755e+10
      27.1015  3.44322e+10
      26.9585  3.57361e+10
      26.8156  3.70889e+10
      26.6726  3.84925e+10
      26.5297  3.99487e+10
      26.3867  4.14595e+10
      26.2437  4.30269e+10
      26.1008   4.4653e+10
      25.9578    4.634e+10
      25.8149  4.80902e+10
      25.6719  4.99059e+10
       25.529  5.17895e+10
       25.386  5.37436e+10
      25.2431  5.57707e+10
      25.1001  5.78736e+10
      24.9571   6.0055e+10
      24.8142  6.23178e+10
