Temperature = 1661.93K
THERMAL DISTRIBUTIONS:
  E, kcal/mol           W1
      145.591     0.108394
      145.448     0.112458
      145.306     0.116673
      145.163     0.121046
       145.02     0.125582
      144.877     0.130288
      144.734      0.13517
      144.591     0.140234
      144.448     0.145488
      144.305     0.150937
      144.162     0.156591
      144.019     0.162455
      143.876     0.168539
      143.733     0.174849
       143.59     0.181396
      143.447     0.188186
      143.304     0.195231
      143.161     0.202538
      143.018     0.210118
      142.875     0.217981
      142.732     0.226137
      142.589     0.234598
      142.446     0.243374
      142.303     0.252478
      142.161     0.261921
      142.018     0.271716
      141.875     0.281877
      141.732     0.292417
      141.589      0.30335
      141.446      0.31469
      141.303     0.326453
       141.16     0.338655
      141.017     0.351311
      140.874     0.364439
      140.731     0.378056
      140.588     0.392181
      140.445     0.406832
      140.302     0.422028
      140.159     0.437791
      140.016     0.454141
      139.873     0.471099
       139.73     0.488689
      139.587     0.506934
      139.444     0.525858
      139.301     0.545487
      139.158     0.565846
      139.015     0.586963
      138.873     0.608866
       138.73     0.631583
      138.587     0.655146
      138.444     0.679585
      138.301     0.704934
      138.158     0.731225
      138.015     0.758494
      137.872     0.786777
      137.729     0.816111
      137.586     0.846536
      137.443     0.878092
        137.3     0.910821
      137.157     0.944766
      137.014     0.979973
      136.871      1.01649
      136.728      1.05436
      136.585      1.09364
      136.442      1.13437
      136.299      1.17662
      136.156      1.22044
      136.013      1.26589
       135.87      1.31302
      135.728      1.36191
      135.585       1.4126
      135.442      1.46518
      135.299      1.51972
      135.156      1.57627
      135.013      1.63492
       134.87      1.69575
      134.727      1.75884
      134.584      1.82426
      134.441      1.89211
      134.298      1.96248
      134.155      2.03546
      134.012      2.11114
      133.869      2.18963
      133.726      2.27102
      133.583      2.35544
       133.44      2.44298
      133.297      2.53377
      133.154      2.62792
      133.011      2.72555
      132.868      2.82681
      132.725      2.93181
      132.583       3.0407
       132.44      3.15363
      132.297      3.27074
      132.154      3.39218
      132.011      3.51811
      131.868      3.64871
      131.725      3.78414
      131.582      3.92458
      131.439      4.07022
      131.296      4.22125
      131.153      4.37786
       131.01      4.54027
      130.867      4.70868
      130.724      4.88332
      130.581      5.06442
      130.438      5.25221
      130.295      5.44694
      130.152      5.64888
      130.009      5.85827
      129.866       6.0754
      129.723      6.30056
       129.58      6.53403
      129.437      6.77613
      129.295      7.02717
      129.152      7.28748
      129.009       7.5574
      128.866      7.83729
      128.723      8.12751
       128.58      8.42845
      128.437      8.74049
      128.294      9.06405
      128.151      9.39955
      128.008      9.74743
      127.865      10.1081
      127.722      10.4822
      127.579        10.87
      127.436      11.2721
      127.293       11.689
       127.15      12.1213
      127.007      12.5696
      126.864      13.0344
      126.721      13.5163
      126.578       14.016
      126.435       14.534
      126.292      15.0712
       126.15      15.6282
      126.007      16.2056
      125.864      16.8044
      125.721      17.4252
      125.578      18.0688
      125.435      18.7362
      125.292      19.4281
      125.149      20.1455
      125.006      20.8893
      124.863      21.6604
       124.72        22.46
      124.577      23.2889
      124.434      24.1484
      124.291      25.0394
      124.148      25.9633
      124.005      26.9211
      123.862      27.9141
      123.719      28.9436
      123.576       30.011
      123.433      31.1176
       123.29      32.2649
      123.147      33.4543
      123.004      34.6875
      122.862      35.9659
      122.719      37.2913
      122.576      38.6654
      122.433      40.0899
       122.29      41.5668
      122.147      43.0978
      122.004      44.6851
      121.861      46.3306
      121.718      48.0366
      121.575      49.8051
      121.432      51.6385
      121.289      53.5392
      121.146      55.5096
      121.003      57.5523
       120.86      59.6699
      120.717      61.8651
      120.574      64.1408
      120.431         66.5
      120.288      68.9456
      120.145      71.4808
      120.002       74.109
      119.859      76.8335
      119.717      79.6577
      119.574      82.5855
      119.431      85.6204
      119.288      88.7665
      119.145      92.0279
      119.002      95.4086
      118.859      98.9131
      118.716      102.546
      118.573      106.312
       118.43      110.215
      118.287      114.261
      118.144      118.456
      118.001      122.804
      117.858       127.31
      117.715      131.982
      117.572      136.825
      117.429      141.844
      117.286      147.047
      117.143       152.44
          117      158.031
      116.857      163.825
      116.714      169.831
      116.572      176.057
      116.429       182.51
      116.286      189.199
      116.143      196.132
          116      203.318
      115.857      210.767
      115.714      218.487
      115.571       226.49
      115.428      234.784
      115.285      243.381
      115.142      252.292
      114.999      261.527
      114.856        271.1
      114.713      281.021
       114.57      291.305
      114.427      301.963
      114.284       313.01
      114.141       324.46
      113.998      336.326
      113.855      348.626
      113.712      361.373
      113.569      374.585
      113.426      388.278
      113.284       402.47
      113.141      417.178
      112.998      432.423
      112.855      448.222
      112.712      464.596
      112.569      481.566
      112.426      499.154
      112.283      517.382
       112.14      536.272
      111.997       555.85
      111.854       576.14
      111.711      597.168
      111.568      618.961
      111.425      641.546
      111.282      664.952
      111.139      689.208
      110.996      714.346
      110.853      740.398
       110.71      767.396
      110.567      795.374
      110.424      824.369
      110.281      854.417
      110.139      885.556
      109.996      917.826
      109.853      951.267
       109.71      985.921
      109.567      1021.83
      109.424      1059.05
      109.281      1097.61
      109.138      1137.58
      108.995      1178.99
      108.852      1221.91
      108.709      1266.38
      108.566      1312.47
      108.423      1360.22
       108.28      1409.71
      108.137      1460.99
      107.994      1514.12
      107.851      1569.18
      107.708      1626.24
      107.565      1685.36
      107.422      1746.63
      107.279      1810.11
      107.136      1875.89
      106.993      1944.05
      106.851      2014.68
      106.708      2087.87
      106.565       2163.7
      106.422      2242.28
      106.279       2323.7
      106.136      2408.06
      105.993      2495.47
       105.85      2586.05
      105.707       2679.9
      105.564      2777.14
      105.421      2877.89
      105.278      2982.29
      105.135      3090.46
      104.992      3202.53
      104.849      3318.65
      104.706      3438.97
      104.563      3563.63
       104.42      3692.79
      104.277      3826.62
      104.134      3965.27
      103.991      4108.93
      103.848      4257.77
      103.706      4411.98
      103.563      4571.75
       103.42      4737.29
      103.277       4908.8
      103.134      5086.48
      102.991      5270.58
      102.848      5461.31
      102.705      5658.91
      102.562      5863.63
      102.419      6075.73
      102.276      6295.47
      102.133      6523.12
       101.99      6758.97
      101.847      7003.32
      101.704      7256.45
      101.561      7518.71
      101.418      7790.39
      101.275      8071.86
      101.132      8363.45
      100.989      8665.53
      100.846      8978.48
      100.703      9302.68
      100.561      9638.54
      100.418      9986.47
      100.275      10346.9
      100.132      10720.3
      99.9887      11107.1
      99.8457      11507.8
      99.7028      11922.9
      99.5598      12352.9
      99.4169      12798.4
      99.2739      13259.8
       99.131      13737.8
       98.988        14233
       98.845        14746
      98.7021      15277.3
      98.5591      15827.7
      98.4162      16397.9
      98.2732      16988.5
      98.1303      17600.3
      97.9873        18234
      97.8444      18890.4
      97.7014      19570.4
      97.5584      20274.7
      97.4155      21004.3
      97.2725        21760
      97.1296      22542.8
      96.9866      23353.6
      96.8437      24193.5
      96.7007      25063.4
      96.5578      25964.5
      96.4148      26897.8
      96.2718      27864.5
      96.1289      28865.8
      95.9859        29903
       95.843      30977.2
         95.7      32089.8
      95.5571      33242.3
      95.4141      34435.9
      95.2712      35672.2
      95.1282      36952.7
      94.9853      38278.9
      94.8423      39652.6
      94.6993      41075.2
      94.5564      42548.8
      94.4134      44074.9
      94.2705      45655.5
      94.1275      47292.6
      93.9846        48988
      93.8416        50744
      93.6987      52562.7
      93.5557      54446.2
      93.4127      56396.9
      93.2698      58417.2
      93.1268      60509.5
      92.9839      62676.4
      92.8409      64920.6
       92.698      67244.7
       92.555      69651.7
      92.4121      72144.4
      92.2691      74725.9
      92.1261      77399.3
      91.9832        80168
      91.8402      83035.2
      91.6973      86004.5
      91.5543      89079.4
      91.4114      92263.8
      91.2684      95561.5
      91.1255      98976.5
      90.9825       102513
      90.8395       106175
      90.6966       109968
      90.5536       113895
      90.4107       117962
      90.2677       122173
      90.1248       126534
      89.9818       131050
      89.8389       135726
      89.6959       140569
      89.5529       145583
        89.41       150775
       89.267       156152
      89.1241       161719
      88.9811       167484
      88.8382       173454
      88.6952       179635
      88.5523       186036
      88.4093       192663
      88.2663       199525
      88.1234       206631
      87.9804       213988
      87.8375       221606
      87.6945       229494
      87.5516       237661
      87.4086       246118
      87.2657       254874
      87.1227       263940
      86.9798       273327
      86.8368       283046
      86.6938       293108
      86.5509       303527
      86.4079       314314
       86.265       325483
       86.122       337047
      85.9791       349019
      85.8361       361415
      85.6932       374248
      85.5502       387535
      85.4072       401292
      85.2643       415534
      85.1213       430279
      84.9784       445544
      84.8354       461349
      84.6925       477711
      84.5495       494651
      84.4066       512188
      84.2636       530344
      84.1206       549140
      83.9777       568598
      83.8347       588743
      83.6918       609598
      83.5488       631188
      83.4059       653538
      83.2629       676676
        83.12       700628
       82.977       725424
       82.834       751093
      82.6911       777666
      82.5481       805173
      82.4052       833649
      82.2622       863126
      82.1193       893641
      81.9763       925228
      81.8334       957926
      81.6904       991773
      81.5474  1.02681e+06
      81.4045  1.06308e+06
      81.2615  1.10062e+06
      81.1186  1.13948e+06
      80.9756  1.17971e+06
      80.8327  1.22135e+06
      80.6897  1.26445e+06
      80.5468  1.30906e+06
      80.4038  1.35524e+06
      80.2608  1.40304e+06
      80.1179  1.45251e+06
      79.9749  1.50372e+06
       79.832  1.55673e+06
       79.689   1.6116e+06
      79.5461  1.66838e+06
      79.4031  1.72716e+06
      79.2602    1.788e+06
      79.1172  1.85097e+06
      78.9743  1.91614e+06
      78.8313   1.9836e+06
      78.6883  2.05342e+06
      78.5454  2.12568e+06
      78.4024  2.20047e+06
      78.2595  2.27788e+06
      78.1165    2.358e+06
      77.9736  2.44092e+06
      77.8306  2.52673e+06
      77.6877  2.61555e+06
      77.5447  2.70748e+06
      77.4017  2.80261e+06
      77.2588  2.90107e+06
      77.1158  3.00297e+06
      76.9729  3.10843e+06
      76.8299  3.21757e+06
       76.687  3.33052e+06
       76.544  3.44742e+06
      76.4011  3.56839e+06
      76.2581  3.69359e+06
      76.1151  3.82315e+06
      75.9722  3.95723e+06
      75.8292  4.09599e+06
      75.6863  4.23959e+06
      75.5433  4.38819e+06
      75.4004  4.54197e+06
      75.2574   4.7011e+06
      75.1145  4.86578e+06
      74.9715   5.0362e+06
      74.8285  5.21255e+06
      74.6856  5.39504e+06
      74.5426  5.58388e+06
      74.3997  5.77929e+06
      74.2567  5.98151e+06
      74.1138  6.19075e+06
      73.9708  6.40728e+06
      73.8279  6.63133e+06
      73.6849  6.86317e+06
      73.5419  7.10307e+06
       73.399   7.3513e+06
       73.256  7.60816e+06
      73.1131  7.87394e+06
      72.9701  8.14895e+06
      72.8272  8.43351e+06
      72.6842  8.72794e+06
      72.5413   9.0326e+06
      72.3983  9.34782e+06
      72.2554  9.67398e+06
      72.1124  1.00115e+07
      71.9694  1.03606e+07
      71.8265  1.07219e+07
      71.6835  1.10957e+07
      71.5406  1.14825e+07
      71.3976  1.18826e+07
      71.2547  1.22966e+07
      71.1117   1.2725e+07
      70.9688  1.31682e+07
      70.8258  1.36267e+07
      70.6828  1.41011e+07
      70.5399  1.45919e+07
      70.3969  1.50997e+07
       70.254   1.5625e+07
       70.111  1.61685e+07
      69.9681  1.67308e+07
      69.8251  1.73125e+07
      69.6822  1.79144e+07
      69.5392   1.8537e+07
      69.3962  1.91811e+07
      69.2533  1.98475e+07
      69.1103  2.05369e+07
      68.9674  2.12501e+07
      68.8244  2.19879e+07
      68.6815  2.27511e+07
      68.5385  2.35407e+07
      68.3956  2.43575e+07
      68.2526  2.52025e+07
      68.1096  2.60765e+07
      67.9667  2.69808e+07
      67.8237  2.79161e+07
      67.6808  2.88837e+07
      67.5378  2.98846e+07
      67.3949    3.092e+07
      67.2519   3.1991e+07
       67.109  3.30989e+07
       66.966  3.42449e+07
       66.823  3.54303e+07
      66.6801  3.66565e+07
      66.5371  3.79249e+07
      66.3942  3.92368e+07
      66.2512  4.05939e+07
      66.1083  4.19975e+07
      65.9653  4.34494e+07
      65.8224  4.49512e+07
      65.6794  4.65045e+07
      65.5364  4.81112e+07
      65.3935   4.9773e+07
      65.2505  5.14918e+07
      65.1076  5.32696e+07
      64.9646  5.51083e+07
      64.8217  5.70101e+07
      64.6787  5.89771e+07
      64.5358  6.10115e+07
      64.3928  6.31156e+07
      64.2499  6.52918e+07
      64.1069  6.75426e+07
      63.9639  6.98704e+07
       63.821  7.22779e+07
       63.678  7.47678e+07
      63.5351  7.73428e+07
      63.3921   8.0006e+07
      63.2492  8.27603e+07
      63.1062  8.56087e+07
      62.9633  8.85545e+07
      62.8203   9.1601e+07
      62.6773  9.47515e+07
      62.5344  9.80097e+07
      62.3914  1.01379e+08
      62.2485  1.04864e+08
      62.1055  1.08467e+08
      61.9626  1.12193e+08
      61.8196  1.16047e+08
      61.6767  1.20032e+08
      61.5337  1.24153e+08
      61.3907  1.28414e+08
      61.2478  1.32821e+08
      61.1048  1.37378e+08
      60.9619   1.4209e+08
      60.8189  1.46962e+08
       60.676     1.52e+08
       60.533   1.5721e+08
      60.3901  1.62598e+08
      60.2471  1.68168e+08
      60.1041  1.73928e+08
      59.9612  1.79884e+08
      59.8182  1.86042e+08
      59.6753   1.9241e+08
      59.5323  1.98994e+08
      59.3894  2.05802e+08
      59.2464  2.12841e+08
      59.1035  2.20119e+08
      58.9605  2.27644e+08
      58.8175  2.35425e+08
      58.6746   2.4347e+08
      58.5316  2.51787e+08
      58.3887  2.60387e+08
      58.2457  2.69278e+08
      58.1028   2.7847e+08
      57.9598  2.87974e+08
      57.8169    2.978e+08
      57.6739  3.07959e+08
      57.5309  3.18462e+08
       57.388   3.2932e+08
       57.245  3.40546e+08
      57.1021  3.52151e+08
      56.9591   3.6415e+08
      56.8162  3.76554e+08
      56.6732  3.89377e+08
      56.5303  4.02634e+08
      56.3873  4.16339e+08
      56.2444  4.30506e+08
      56.1014  4.45152e+08
      55.9584  4.60293e+08
      55.8155  4.75945e+08
      55.6725  4.92125e+08
      55.5296  5.08851e+08
      55.3866  5.26141e+08
      55.2437  5.44014e+08
      55.1007  5.62489e+08
      54.9578  5.81588e+08
      54.8148  6.01329e+08
      54.6718  6.21736e+08
      54.5289   6.4283e+08
      54.3859  6.64634e+08
       54.243  6.87171e+08
         54.1  7.10467e+08
      53.9571  7.34547e+08
      53.8141  7.59437e+08
      53.6712  7.85163e+08
      53.5282  8.11754e+08
      53.3852  8.39238e+08
      53.2423  8.67646e+08
      53.0993  8.97008e+08
      52.9564  9.27355e+08
      52.8134  9.58721e+08
      52.6705   9.9114e+08
      52.5275  1.02465e+09
      52.3846  1.05928e+09
      52.2416  1.09507e+09
      52.0986  1.13206e+09
      51.9557  1.17029e+09
      51.8127   1.2098e+09
      51.6698  1.25063e+09
      51.5268  1.29283e+09
      51.3839  1.33645e+09
      51.2409  1.38152e+09
       51.098   1.4281e+09
       50.955  1.47624e+09
       50.812  1.52598e+09
      50.6691  1.57739e+09
      50.5261  1.63052e+09
      50.3832  1.68543e+09
      50.2402  1.74216e+09
      50.0973  1.80079e+09
      49.9543  1.86138e+09
      49.8114  1.92399e+09
      49.6684  1.98869e+09
      49.5255  2.05554e+09
      49.3825  2.12462e+09
      49.2395  2.19601e+09
      49.0966  2.26977e+09
      48.9536    2.346e+09
      48.8107  2.42475e+09
      48.6677  2.50614e+09
      48.5248  2.59022e+09
      48.3818  2.67711e+09
      48.2389  2.76689e+09
      48.0959  2.85965e+09
      47.9529  2.95549e+09
        47.81  3.05452e+09
       47.667  3.15684e+09
      47.5241  3.26256e+09
      47.3811  3.37179e+09
      47.2382  3.48464e+09
      47.0952  3.60124e+09
      46.9523   3.7217e+09
      46.8093  3.84616e+09
      46.6663  3.97474e+09
      46.5234  4.10759e+09
      46.3804  4.24484e+09
      46.2375  4.38663e+09
      46.0945  4.53311e+09
      45.9516  4.68445e+09
      45.8086  4.84079e+09
      45.6657  5.00231e+09
      45.5227  5.16916e+09
      45.3797  5.34154e+09
      45.2368   5.5196e+09
      45.0938  5.70356e+09
      44.9509  5.89358e+09
      44.8079  6.08989e+09
       44.665  6.29267e+09
       44.522  6.50214e+09
      44.3791  6.71852e+09
      44.2361  6.94204e+09
      44.0931  7.17292e+09
      43.9502  7.41142e+09
      43.8072  7.65777e+09
      43.6643  7.91224e+09
      43.5213  8.17508e+09
      43.3784  8.44658e+09
      43.2354  8.72701e+09
      43.0925  9.01666e+09
      42.9495  9.31584e+09
      42.8065  9.62485e+09
      42.6636  9.94402e+09
      42.5206  1.02737e+10
      42.3777  1.06141e+10
      42.2347  1.09658e+10
      42.0918   1.1329e+10
      41.9488  1.17041e+10
      41.8059  1.20915e+10
      41.6629  1.24916e+10
        41.52  1.29049e+10
       41.377  1.33316e+10
       41.234  1.37724e+10
      41.0911  1.42276e+10
      40.9481  1.46977e+10
      40.8052  1.51831e+10
      40.6622  1.56845e+10
      40.5193  1.62022e+10
      40.3763  1.67369e+10
      40.2334   1.7289e+10
