Temperature = 1601.11K
THERMAL DISTRIBUTIONS:
  E, kcal/mol           W1
      140.757    0.0514978
      140.614    0.0535098
      140.471    0.0556002
      140.328     0.057772
      140.185    0.0600284
      140.042    0.0623728
      139.899    0.0648084
      139.756    0.0673389
      139.613     0.069968
       139.47    0.0726994
      139.327    0.0755372
      139.184    0.0784855
      139.041    0.0815486
      138.898    0.0847308
      138.755     0.088037
      138.612    0.0914718
      138.469    0.0950402
      138.326    0.0987475
      138.183     0.102599
      138.041       0.1066
      137.898     0.110757
      137.755     0.115076
      137.612     0.119563
      137.469     0.124224
      137.326     0.129066
      137.183     0.134097
       137.04     0.139323
      136.897     0.144752
      136.754     0.150392
      136.611     0.156252
      136.468     0.162339
      136.325     0.168662
      136.182     0.175232
      136.039     0.182056
      135.896     0.189145
      135.753      0.19651
       135.61     0.204161
      135.467     0.212109
      135.324     0.220365
      135.181     0.228942
      135.038     0.237852
      134.896     0.247108
      134.753     0.256723
       134.61     0.266711
      134.467     0.277086
      134.324     0.287864
      134.181      0.29906
      134.038     0.310691
      133.895     0.322772
      133.752     0.335322
      133.609     0.348358
      133.466       0.3619
      133.323     0.375967
       133.18     0.390579
      133.037     0.405758
      132.894     0.421525
      132.751     0.437902
      132.608     0.454915
      132.465     0.472586
      132.322     0.490942
      132.179     0.510009
      132.036     0.529814
      131.893     0.550386
      131.751     0.571755
      131.608     0.593951
      131.465     0.617006
      131.322     0.640954
      131.179     0.665829
      131.036     0.691666
      130.893     0.718503
       130.75     0.746378
      130.607     0.775332
      130.464     0.805406
      130.321     0.836642
      130.178     0.869087
      130.035     0.902787
      129.892     0.937789
      129.749     0.974145
      129.606      1.01191
      129.463      1.05113
       129.32      1.09186
      129.177      1.13417
      129.034      1.17812
      128.891      1.22376
      128.748      1.27117
      128.605      1.32041
      128.463      1.37155
       128.32      1.42466
      128.177      1.47983
      128.034      1.53712
      127.891      1.59663
      127.748      1.65843
      127.605      1.72262
      127.462      1.78929
      127.319      1.85853
      127.176      1.93044
      127.033      2.00512
       126.89      2.08269
      126.747      2.16325
      126.604      2.24691
      126.461       2.3338
      126.318      2.42404
      126.175      2.51776
      126.032      2.61509
      125.889      2.71618
      125.746      2.82116
      125.603      2.93018
       125.46      3.04341
      125.318      3.16099
      125.175      3.28311
      125.032      3.40993
      124.889      3.54164
      124.746      3.67841
      124.603      3.82046
       124.46      3.96797
      124.317      4.12116
      124.174      4.28025
      124.031      4.44545
      123.888      4.61702
      123.745      4.79519
      123.602      4.98021
      123.459      5.17235
      123.316      5.37188
      123.173      5.57908
       123.03      5.79425
      122.887       6.0177
      122.744      6.24973
      122.601      6.49069
      122.458       6.7409
      122.315      7.00073
      122.172      7.27055
       122.03      7.55073
      121.887      7.84168
      121.744       8.1438
      121.601      8.45753
      121.458       8.7833
      121.315      9.12159
      121.172      9.47286
      121.029      9.83762
      120.886      10.2164
      120.743      10.6097
        120.6      11.0181
      120.457      11.4421
      120.314      11.8825
      120.171      12.3397
      120.028      12.8145
      119.885      13.3074
      119.742      13.8193
      119.599      14.3508
      119.456      14.9027
      119.313      15.4757
       119.17      16.0707
      119.027      16.6885
      118.885        17.33
      118.742      17.9961
      118.599      18.6876
      118.456      19.4057
      118.313      20.1513
       118.17      20.9254
      118.027      21.7292
      117.884      22.5637
      117.741      23.4302
      117.598      24.3298
      117.455      25.2639
      117.312      26.2338
      117.169      27.2407
      117.026      28.2862
      116.883      29.3716
       116.74      30.4986
      116.597      31.6687
      116.454      32.8835
      116.311      34.1448
      116.168      35.4543
      116.025      36.8139
      115.882      38.2254
       115.74      39.6908
      115.597      41.2123
      115.454      42.7919
      115.311      44.4318
      115.168      46.1344
      115.025      47.9019
      114.882       49.737
      114.739      51.6422
      114.596      53.6201
      114.453      55.6735
       114.31      57.8052
      114.167      60.0183
      114.024      62.3159
      113.881      64.7011
      113.738      67.1773
      113.595       69.748
      113.452      72.4167
      113.309      75.1872
      113.166      78.0633
      113.023       81.049
       112.88      84.1486
      112.737      87.3663
      112.594      90.7066
      112.452      94.1742
      112.309      97.7739
      112.166      101.511
      112.023       105.39
       111.88      109.417
      111.737      113.597
      111.594      117.936
      111.451      122.441
      111.308      127.117
      111.165      131.971
      111.022       137.01
      110.879       142.24
      110.736       147.67
      110.593      153.305
       110.45      159.156
      110.307      165.229
      110.164      171.532
      110.021      178.076
      109.878      184.868
      109.735      191.918
      109.592      199.236
      109.449      206.832
      109.307      214.717
      109.164      222.901
      109.021      231.397
      108.878      240.214
      108.735      249.367
      108.592      258.867
      108.449      268.728
      108.306      278.963
      108.163      289.587
       108.02      300.613
      107.877      312.058
      107.734      323.938
      107.591      336.267
      107.448      349.065
      107.305      362.348
      107.162      376.134
      107.019      390.443
      106.876      405.294
      106.733      420.709
       106.59      436.707
      106.447      453.311
      106.304      470.545
      106.161      488.431
      106.019      506.995
      105.876      526.262
      105.733      546.258
       105.59      567.011
      105.447       588.55
      105.304      610.904
      105.161      634.104
      105.018      658.182
      104.875       683.17
      104.732      709.104
      104.589      736.019
      104.446      763.951
      104.303       792.94
       104.16      823.024
      104.017      854.246
      103.874      886.648
      103.731      920.274
      103.588       955.17
      103.445      991.385
      103.302      1028.97
      103.159      1067.97
      103.016      1108.45
      102.874      1150.45
      102.731      1194.04
      102.588      1239.27
      102.445      1286.21
      102.302      1334.92
      102.159      1385.48
      102.016      1437.93
      101.873      1492.37
       101.73      1548.86
      101.587      1607.48
      101.444       1668.3
      101.301      1731.43
      101.158      1796.93
      101.015       1864.9
      100.872      1935.43
      100.729      2008.62
      100.586      2084.56
      100.443      2163.36
        100.3      2245.14
      100.157      2329.99
      100.014      2418.03
      99.8715      2509.39
      99.7285      2604.19
      99.5856      2702.56
      99.4426      2804.62
      99.2996      2910.53
      99.1567      3020.42
      99.0137      3134.44
      98.8708      3252.75
      98.7278      3375.51
      98.5849      3502.88
      98.4419      3635.04
       98.299      3772.16
       98.156      3914.44
       98.013      4062.06
      97.8701      4215.23
      97.7271      4374.15
      97.5842      4539.04
      97.4412      4710.12
      97.2983      4887.62
      97.1553      5071.78
      97.0124      5262.86
      96.8694       5461.1
      96.7264      5666.78
      96.5835      5880.18
      96.4405      6101.58
      96.2976      6331.28
      96.1546      6569.59
      96.0117      6816.84
      95.8687      7073.36
      95.7258      7339.49
      95.5828      7615.59
      95.4398      7902.03
      95.2969      8199.21
      95.1539      8507.51
       95.011      8827.36
       94.868      9159.19
      94.7251      9503.43
      94.5821      9860.56
      94.4392      10231.1
      94.2962      10615.4
      94.1533      11014.2
      94.0103      11427.8
      93.8673      11856.9
      93.7244      12302.1
      93.5814      12763.9
      93.4385        13243
      93.2955        13740
      93.1526      14255.6
      93.0096      14790.4
      92.8667      15345.2
      92.7237      15920.7
      92.5807      16517.7
      92.4378        17137
      92.2948      17779.5
      92.1519      18445.9
      92.0089      19137.2
       91.866      19854.3
       91.723      20598.1
      91.5801      21369.7
      91.4371      22170.1
      91.2941      23000.3
      91.1512      23861.5
      91.0082      24754.7
      90.8653      25681.3
      90.7223      26642.4
      90.5794      27639.3
      90.4364      28673.4
      90.2935        29746
      90.1505      30858.5
      90.0075      32012.4
      89.8646      33209.3
      89.7216      34450.8
      89.5787      35738.5
      89.4357      37074.1
      89.2928      38459.4
      89.1498      39896.2
      89.0069      41386.5
      88.8639      42932.1
      88.7209      44535.3
       88.578        46198
       88.435      47922.6
      88.2921      49711.2
      88.1491      51566.4
      88.0062      53490.4
      87.8632      55485.9
      87.7203      57555.5
      87.5773      59701.9
      87.4343      61928.1
      87.2914      64236.8
      87.1484      66631.3
      87.0055      69114.6
      86.8625      71690.1
      86.7196        74361
      86.5766      77131.1
      86.4337      80003.8
      86.2907      82983.1
      86.1478      86072.8
      86.0048        89277
      85.8618        92600
      85.7189        96046
      85.5759      99619.7
       85.433       103326
        85.29       107169
      85.1471       111155
      85.0041       115288
      84.8612       119574
      84.7182       124019
      84.5752       128628
      84.4323       133408
      84.2893       138364
      84.1464       143504
      84.0034       148833
      83.8605       154360
      83.7175       160091
      83.5746       166034
      83.4316       172196
      83.2886       178586
      83.1457       185212
      83.0027       192083
      82.8598       199208
      82.7168       206595
      82.5739       214255
      82.4309       222197
       82.288       230433
       82.145       238973
       82.002       247827
      81.8591       257008
      81.7161       266527
      81.5732       276397
      81.4302       286631
      81.2873       297242
      81.1443       308244
      81.0014       319651
      80.8584       331479
      80.7154       343741
      80.5725       356456
      80.4295       369638
      80.2866       383305
      80.1436       397475
      80.0007       412166
      79.8577       427398
      79.7148       443190
      79.5718       459562
      79.4288       476536
      79.2859       494134
      79.1429       512379
           79       531294
       78.857       550904
      78.7141       571234
      78.5711       592310
      78.4282       614160
      78.2852       636812
      78.1423       660295
      77.9993       684640
      77.8563       709878
      77.7134       736041
      77.5704       763164
      77.4275       791282
      77.2845       820430
      77.1416       850646
      76.9986       881969
      76.8557       914440
      76.7127       948100
      76.5697       982992
      76.4268  1.01916e+06
      76.2838  1.05666e+06
      76.1409  1.09552e+06
      75.9979  1.13581e+06
       75.855  1.17757e+06
       75.712  1.22086e+06
      75.5691  1.26574e+06
      75.4261  1.31225e+06
      75.2831  1.36047e+06
      75.1402  1.41044e+06
      74.9972  1.46225e+06
      74.8543  1.51594e+06
      74.7113   1.5716e+06
      74.5684  1.62929e+06
      74.4254  1.68908e+06
      74.2825  1.75106e+06
      74.1395   1.8153e+06
      73.9965  1.88189e+06
      73.8536   1.9509e+06
      73.7106  2.02243e+06
      73.5677  2.09657e+06
      73.4247  2.17342e+06
      73.2818  2.25306e+06
      73.1388  2.33561e+06
      72.9959  2.42116e+06
      72.8529  2.50984e+06
      72.7099  2.60174e+06
       72.567  2.69699e+06
       72.424  2.79571e+06
      72.2811  2.89802e+06
      72.1381  3.00406e+06
      71.9952  3.11395e+06
      71.8522  3.22784e+06
      71.7093  3.34588e+06
      71.5663   3.4682e+06
      71.4234  3.59498e+06
      71.2804  3.72636e+06
      71.1374  3.86252e+06
      70.9945  4.00362e+06
      70.8515  4.14986e+06
      70.7086   4.3014e+06
      70.5656  4.45845e+06
      70.4227  4.62119e+06
      70.2797  4.78985e+06
      70.1368  4.96463e+06
      69.9938  5.14575e+06
      69.8508  5.33343e+06
      69.7079  5.52793e+06
      69.5649  5.72948e+06
       69.422  5.93833e+06
       69.279  6.15476e+06
      69.1361  6.37903e+06
      68.9931  6.61142e+06
      68.8502  6.85223e+06
      68.7072  7.10176e+06
      68.5642  7.36033e+06
      68.4213  7.62826e+06
      68.2783  7.90588e+06
      68.1354  8.19355e+06
      67.9924  8.49163e+06
      67.8495  8.80049e+06
      67.7065  9.12052e+06
      67.5636  9.45211e+06
      67.4206   9.7957e+06
      67.2776  1.01517e+07
      67.1347  1.05206e+07
      66.9917  1.09027e+07
      66.8488  1.12987e+07
      66.7058   1.1709e+07
      66.5629  1.21341e+07
      66.4199  1.25746e+07
       66.277  1.30309e+07
       66.134  1.35037e+07
       65.991  1.39935e+07
      65.8481   1.4501e+07
      65.7051  1.50268e+07
      65.5622  1.55716e+07
      65.4192   1.6136e+07
      65.2763  1.67207e+07
      65.1333  1.73265e+07
      64.9904  1.79541e+07
      64.8474  1.86043e+07
      64.7044  1.92779e+07
      64.5615  1.99757e+07
      64.4185  2.06986e+07
      64.2756  2.14476e+07
      64.1326  2.22235e+07
      63.9897  2.30273e+07
      63.8467  2.38599e+07
      63.7038  2.47225e+07
      63.5608  2.56161e+07
      63.4179  2.65418e+07
      63.2749  2.75008e+07
      63.1319  2.84941e+07
       62.989  2.95232e+07
       62.846  3.05891e+07
      62.7031  3.16933e+07
      62.5601  3.28371e+07
      62.4172   3.4022e+07
      62.2742  3.52493e+07
      62.1313  3.65206e+07
      61.9883  3.78375e+07
      61.8453  3.92016e+07
      61.7024  4.06146e+07
      61.5594  4.20781e+07
      61.4165  4.35941e+07
      61.2735  4.51643e+07
      61.1306  4.67907e+07
      60.9876  4.84753e+07
      60.8447  5.02202e+07
      60.7017  5.20275e+07
      60.5587  5.38994e+07
      60.4158  5.58382e+07
      60.2728  5.78464e+07
      60.1299  5.99262e+07
      59.9869  6.20804e+07
       59.844  6.43115e+07
       59.701  6.66223e+07
      59.5581  6.90155e+07
      59.4151  7.14942e+07
      59.2721  7.40613e+07
      59.1292    7.672e+07
      58.9862  7.94735e+07
      58.8433  8.23252e+07
      58.7003  8.52785e+07
      58.5574  8.83371e+07
      58.4144  9.15046e+07
      58.2715   9.4785e+07
      58.1285  9.81821e+07
      57.9855    1.017e+08
      57.8426  1.05344e+08
      57.6996  1.09117e+08
      57.5567  1.13024e+08
      57.4137   1.1707e+08
      57.2708   1.2126e+08
      57.1278  1.25599e+08
      56.9849  1.30092e+08
      56.8419  1.34745e+08
      56.6989  1.39564e+08
       56.556  1.44553e+08
       56.413  1.49719e+08
      56.2701  1.55069e+08
      56.1271  1.60609e+08
      55.9842  1.66345e+08
      55.8412  1.72285e+08
      55.6983  1.78435e+08
      55.5553  1.84804e+08
      55.4124  1.91398e+08
      55.2694  1.98225e+08
      55.1264  2.05295e+08
      54.9835  2.12615e+08
      54.8405  2.20194e+08
      54.6976  2.28042e+08
      54.5546  2.36167e+08
      54.4117   2.4458e+08
      54.2687   2.5329e+08
      54.1258  2.62308e+08
      53.9828  2.71645e+08
      53.8398  2.81313e+08
      53.6969  2.91321e+08
      53.5539  3.01683e+08
       53.411  3.12412e+08
       53.268  3.23519e+08
      53.1251  3.35018e+08
      52.9821  3.46923e+08
      52.8392  3.59247e+08
      52.6962  3.72007e+08
      52.5532  3.85216e+08
      52.4103  3.98891e+08
      52.2673  4.13048e+08
      52.1244  4.27704e+08
      51.9814  4.42876e+08
      51.8385  4.58583e+08
      51.6955  4.74842e+08
      51.5526  4.91673e+08
      51.4096  5.09097e+08
      51.2666  5.27134e+08
      51.1237  5.45805e+08
      50.9807  5.65132e+08
      50.8378  5.85139e+08
      50.6948  6.05848e+08
      50.5519  6.27286e+08
      50.4089  6.49476e+08
       50.266  6.72445e+08
       50.123   6.9622e+08
        49.98   7.2083e+08
      49.8371  7.46303e+08
      49.6941  7.72669e+08
      49.5512   7.9996e+08
      49.4082  8.28207e+08
      49.2653  8.57445e+08
      49.1223  8.87706e+08
      48.9794  9.19028e+08
      48.8364  9.51446e+08
      48.6935  9.84999e+08
      48.5505  1.01973e+09
      48.4075  1.05567e+09
      48.2646  1.09287e+09
      48.1216  1.13137e+09
      47.9787  1.17121e+09
      47.8357  1.21245e+09
      47.6928  1.25513e+09
      47.5498   1.2993e+09
      47.4069  1.34501e+09
      47.2639  1.39232e+09
      47.1209  1.44127e+09
       46.978  1.49194e+09
       46.835  1.54437e+09
      46.6921  1.59863e+09
      46.5491  1.65478e+09
      46.4062  1.71289e+09
      46.2632  1.77302e+09
      46.1203  1.83525e+09
      45.9773  1.89964e+09
      45.8343  1.96628e+09
      45.6914  2.03523e+09
      45.5484  2.10658e+09
      45.4055  2.18041e+09
      45.2625  2.25681e+09
      45.1196  2.33587e+09
      44.9766  2.41767e+09
      44.8337  2.50231e+09
      44.6907  2.58989e+09
      44.5477  2.68052e+09
      44.4048  2.77428e+09
      44.2618   2.8713e+09
      44.1189  2.97169e+09
      43.9759  3.07555e+09
       43.833  3.18302e+09
        43.69  3.29421e+09
      43.5471  3.40925e+09
      43.4041  3.52827e+09
      43.2611  3.65142e+09
      43.1182  3.77883e+09
      42.9752  3.91064e+09
      42.8323  4.04702e+09
      42.6893  4.18811e+09
      42.5464  4.33407e+09
      42.4034  4.48509e+09
      42.2605  4.64131e+09
      42.1175  4.80294e+09
      41.9745  4.97014e+09
      41.8316  5.14312e+09
      41.6886  5.32206e+09
      41.5457  5.50717e+09
      41.4027  5.69867e+09
      41.2598  5.89677e+09
      41.1168   6.1017e+09
      40.9739  6.31368e+09
      40.8309  6.53297e+09
       40.688  6.75981e+09
       40.545  6.99445e+09
       40.402  7.23717e+09
      40.2591  7.48823e+09
      40.1161  7.74793e+09
      39.9732  8.01656e+09
      39.8302  8.29441e+09
      39.6873  8.58181e+09
      39.5443  8.87908e+09
      39.4014  9.18656e+09
      39.2584  9.50458e+09
      39.1154  9.83352e+09
      38.9725  1.01737e+10
      38.8295  1.05256e+10
      38.6866  1.08896e+10
      38.5436   1.1266e+10
      38.4007  1.16553e+10
      38.2577  1.20579e+10
      38.1148  1.24744e+10
      37.9718   1.2905e+10
      37.8288  1.33504e+10
      37.6859  1.38111e+10
      37.5429  1.42874e+10
         37.4  1.47801e+10
       37.257  1.52896e+10
      37.1141  1.58165e+10
      36.9711  1.63614e+10
      36.8282  1.69248e+10
      36.6852  1.75075e+10
      36.5422  1.81101e+10
      36.3993  1.87332e+10
      36.2563  1.93776e+10
      36.1134  2.00439e+10
      35.9704  2.07329e+10
      35.8275  2.14453e+10
      35.6845   2.2182e+10
      35.5416  2.29438e+10
      35.3986  2.37315e+10
