Temperature = 525.562K
THERMAL DISTRIBUTIONS:
  E, kcal/mol           W1
      55.2637  1.77365e-17
      55.1207  2.01381e-17
      54.9778  2.28648e-17
      54.8348  2.59604e-17
      54.6919  2.94749e-17
      54.5489   3.3465e-17
      54.4059  3.79948e-17
       54.263  4.31374e-17
        54.12  4.89757e-17
      53.9771  5.56037e-17
      53.8341  6.31281e-17
      53.6912  7.16702e-17
      53.5482  8.13674e-17
      53.4053  9.23759e-17
      53.2623  1.04873e-16
      53.1193   1.1906e-16
      52.9764  1.35164e-16
      52.8334  1.53446e-16
      52.6905  1.74199e-16
      52.5475  1.97757e-16
      52.4046  2.24499e-16
      52.2616  2.54855e-16
      52.1187  2.89313e-16
      51.9757  3.28428e-16
      51.8327  3.72827e-16
      51.6898  4.23225e-16
      51.5468  4.80432e-16
      51.4039  5.45366e-16
      51.2609  6.19072e-16
       51.118  7.02732e-16
       50.975  7.97692e-16
      50.8321  9.05476e-16
      50.6891  1.02781e-15
      50.5462  1.16667e-15
      50.4032  1.32428e-15
      50.2602  1.50316e-15
      50.1173  1.70619e-15
      49.9743  1.93663e-15
      49.8314  2.19817e-15
      49.6884  2.49501e-15
      49.5455  2.83191e-15
      49.4025  3.21427e-15
      49.2596  3.64823e-15
      49.1166  4.14074e-15
      48.9736   4.6997e-15
      48.8307  5.33406e-15
      48.6877    6.054e-15
      48.5448  6.87104e-15
      48.4018  7.79828e-15
      48.2589  8.85058e-15
      48.1159  1.00448e-14
       47.973     1.14e-14
        47.83   1.2938e-14
       47.687  1.46833e-14
      47.5441  1.66639e-14
      47.4011  1.89114e-14
      47.2582   2.1462e-14
      47.1152  2.43563e-14
      46.9723  2.76406e-14
      46.8293  3.13676e-14
      46.6864  3.55968e-14
      46.5434  4.03958e-14
      46.4004  4.58413e-14
      46.2575  5.20205e-14
      46.1145  5.90321e-14
      45.9716  6.69881e-14
      45.8286  7.60156e-14
      45.6857  8.62589e-14
      45.5427  9.78817e-14
      45.3998  1.11069e-13
      45.2568  1.26033e-13
      45.1138  1.43011e-13
      44.9709  1.62275e-13
      44.8279  1.84131e-13
       44.685   2.0893e-13
       44.542  2.37066e-13
      44.3991  2.68989e-13
      44.2561  3.05207e-13
      44.1132  3.46299e-13
      43.9702   3.9292e-13
      43.8273  4.45813e-13
      43.6843  5.05822e-13
      43.5413  5.73902e-13
      43.3984  6.51139e-13
      43.2554  7.38764e-13
      43.1125  8.38173e-13
      42.9695  9.50949e-13
      42.8266  1.07889e-12
      42.6836  1.22403e-12
      42.5407  1.38868e-12
      42.3977  1.57547e-12
      42.2547  1.78736e-12
      42.1118  2.02774e-12
      41.9688  2.30041e-12
      41.8259  2.60973e-12
      41.6829  2.96061e-12
        41.54  3.35864e-12
       41.397  3.81014e-12
      41.2541  4.32229e-12
      41.1111  4.90324e-12
      40.9681  5.56222e-12
      40.8252  6.30969e-12
      40.6822  7.15755e-12
      40.5393  8.11926e-12
      40.3963  9.21009e-12
      40.2534  1.04474e-11
      40.1104  1.18508e-11
      39.9675  1.34425e-11
      39.8245  1.52479e-11
      39.6815  1.72957e-11
      39.5386  1.96182e-11
      39.3956  2.22523e-11
      39.2527    2.524e-11
      39.1097  2.86284e-11
      38.9668  3.24714e-11
      38.8238    3.683e-11
      38.6809  4.17731e-11
      38.5379  4.73792e-11
      38.3949  5.37371e-11
       38.252  6.09476e-11
       38.109  6.91248e-11
      37.9661  7.83984e-11
      37.8231  8.89153e-11
      37.6802  1.00842e-10
      37.5372  1.14367e-10
      37.3943  1.29705e-10
      37.2513  1.47098e-10
      37.1083  1.66822e-10
      36.9654  1.89189e-10
      36.8224  2.14552e-10
      36.6795  2.43313e-10
      36.5365  2.75927e-10
      36.3936  3.12909e-10
      36.2506  3.54844e-10
      36.1077  4.02395e-10
      35.9647  4.56313e-10
      35.8218  5.17451e-10
      35.6788  5.86773e-10
      35.5358  6.65376e-10
      35.3929  7.54499e-10
      35.2499  8.55552e-10
       35.107  9.70128e-10
       34.964  1.10004e-09
      34.8211  1.24733e-09
      34.6781  1.41433e-09
      34.5352  1.60367e-09
      34.3922  1.81834e-09
      34.2492  2.06172e-09
      34.1063  2.33765e-09
      33.9633  2.65048e-09
      33.8204  3.00515e-09
      33.6774  3.40724e-09
      33.5345  3.86308e-09
      33.3915  4.37986e-09
      33.2486  4.96573e-09
      33.1056  5.62989e-09
      32.9626  6.38282e-09
      32.8197  7.23637e-09
      32.6767  8.20396e-09
      32.5338  9.30084e-09
      32.3908  1.05443e-08
      32.2479  1.19538e-08
      32.1049  1.35515e-08
       31.962  1.53627e-08
       31.819  1.74157e-08
       31.676  1.97429e-08
      31.5331  2.23808e-08
      31.3901  2.53709e-08
      31.2472  2.87602e-08
      31.1042  3.26018e-08
      30.9613  3.69562e-08
      30.8183  4.18916e-08
      30.6754  4.74857e-08
      30.5324  5.38261e-08
      30.3894  6.10125e-08
      30.2465  6.91576e-08
      30.1035  7.83891e-08
      29.9606  8.88518e-08
      29.8176   1.0071e-07
      29.6747  1.14149e-07
      29.5317  1.29381e-07
      29.3888  1.46643e-07
      29.2458  1.66206e-07
      29.1028  1.88377e-07
      28.9599  2.13503e-07
      28.8169  2.41977e-07
       28.674  2.74246e-07
       28.531  3.10814e-07
      28.3881  3.52255e-07
      28.2451  3.99216e-07
      28.1022  4.52432e-07
      27.9592  5.12736e-07
      27.8163  5.81071e-07
      27.6733  6.58506e-07
      27.5303  7.46252e-07
      27.3874  8.45679e-07
      27.2444  9.58342e-07
      27.1015    1.086e-06
      26.9585  1.23065e-06
      26.8156  1.39455e-06
      26.6726  1.58026e-06
      26.5297  1.79068e-06
      26.3867   2.0291e-06
      26.2437  2.29922e-06
      26.1008  2.60528e-06
      25.9578  2.95205e-06
      25.8149  3.34492e-06
      25.6719  3.79004e-06
       25.529  4.29434e-06
       25.386  4.86568e-06
      25.2431  5.51297e-06
      25.1001   6.2463e-06
      24.9571  7.07708e-06
      24.8142  8.01826e-06
      24.6712   9.0845e-06
      24.5283  1.02924e-05
      24.3853  1.16607e-05
      24.2424  1.32109e-05
      24.0994  1.49668e-05
      23.9565   1.6956e-05
      23.8135  1.92094e-05
      23.6705  2.17619e-05
      23.5276  2.46532e-05
      23.3846  2.79284e-05
      23.2417  3.16383e-05
      23.0987  3.58405e-05
      22.9558  4.06004e-05
      22.8128  4.59918e-05
      22.6699  5.20985e-05
      22.5269  5.90154e-05
      22.3839  6.68496e-05
       22.241  7.57229e-05
       22.098   8.5773e-05
      21.9551  9.71556e-05
      21.8121  0.000110047
      21.6692  0.000124648
      21.5262  0.000141184
      21.3833  0.000159912
      21.2403  0.000181122
      21.0974  0.000205142
      20.9544  0.000232345
      20.8114  0.000263151
      20.6685  0.000298038
      20.5255  0.000337546
      20.3826  0.000382286
      20.2396  0.000432951
      20.0967  0.000490324
      19.9537  0.000555292
      19.8108   0.00062886
      19.6678  0.000712165
      19.5248  0.000806496
      19.3819  0.000913308
      19.2389   0.00103425
       19.096    0.0011712
       18.953   0.00132626
      18.8101   0.00150183
      18.6671   0.00170062
      18.5242    0.0019257
      18.3812   0.00218053
      18.2382   0.00246906
      18.0953   0.00279573
      17.9523   0.00316557
      17.8094   0.00358429
      17.6664   0.00405834
      17.5235   0.00459502
      17.3805   0.00520261
      17.2376   0.00589045
      17.0946   0.00666914
      16.9516   0.00755067
      16.8087    0.0085486
      16.6657   0.00967829
      16.5228    0.0109571
      16.3798    0.0124047
      16.2369    0.0140434
      16.0939    0.0158983
       15.951     0.017998
       15.808    0.0203747
       15.665     0.023065
      15.5221    0.0261101
      15.3791    0.0295567
      15.2362    0.0334579
      15.0932    0.0378735
      14.9503    0.0428712
      14.8073    0.0485277
      14.6644    0.0549298
      14.5214    0.0621755
      14.3784    0.0703761
      14.2355    0.0796571
      14.0925    0.0901607
      13.9496     0.102048
      13.8066     0.115501
      13.6637     0.130725
      13.5207     0.147954
      13.3778     0.167451
      13.2348     0.189515
      13.0919     0.214482
      12.9489     0.242736
      12.8059     0.274707
       12.663     0.310885
        12.52     0.351822
      12.3771     0.398143
      12.2341     0.450557
      12.0912     0.509863
      11.9482     0.576967
      11.8053     0.652892
      11.6623     0.738798
      11.5193     0.835995
      11.3764     0.945965
      11.2334      1.07038
      11.0905      1.21115
      10.9475      1.37041
      10.8046      1.55058
      10.6616      1.75442
      10.5187      1.98502
      10.3757       2.2459
      10.2327      2.54102
      10.0898      2.87488
      9.94683      3.25256
      9.80388      3.67979
      9.66092      4.16308
      9.51797      4.70977
      9.37501      5.32817
      9.23206      6.02767
       9.0891       6.8189
      8.94615      7.71387
      8.80319      8.72616
      8.66023      9.87114
      8.51728      11.1662
      8.37432      12.6309
      8.23137      14.2876
      8.08841      16.1613
      7.94546      18.2804
       7.8025       20.677
      7.65955      23.3875
      7.51659      26.4529
      7.37364      29.9195
      7.23068      33.8399
      7.08773      38.2734
      6.94477       43.287
      6.80182      48.9566
      6.65886      55.3679
       6.5159      62.6178
      6.37295      70.8159
      6.22999      80.0859
      6.08704      90.5679
      5.94408       102.42
      5.80113      115.822
      5.65817      130.974
      5.51522      148.107
      5.37226      167.478
      5.22931       189.38
      5.08635      214.142
       4.9434      242.138
      4.80044      273.789
      4.65749      309.572
      4.51453      350.026
      4.37157       395.76
      4.22862      447.462
      4.08566      505.909
      3.94271      571.981
      3.79975      646.671
       3.6568      731.102
      3.51384      826.542
      3.37089      934.424
      3.22793      1056.37
      3.08498      1194.21
      2.94202      1350.01
      2.79907      1526.11
      2.65611      1725.15
      2.51315      1950.12
       2.3702      2204.39
      2.22724      2491.77
      2.08429      2816.56
      1.94133      3183.63
      1.79838      3598.47
      1.65542       4067.3
      1.51247      4597.13
      1.36951      5195.89
      1.22656      5872.52
       1.0836      6637.16
     0.940646      7501.22
     0.797691      8477.61
     0.654735      9580.92
      0.51178      10827.6
     0.368825      12236.3
     0.225869      13828.1
    0.0829141      15626.6
   -0.0600412      17658.7
    -0.202997      19954.6
    -0.345952      22548.7
    -0.488907      25479.6
    -0.631863      28790.8
    -0.774818      32531.8
    -0.917773      36758.2
     -1.06073      41532.9
     -1.20368        46927
     -1.34664      53020.5
     -1.48959      59904.2
     -1.63255      67680.4
     -1.77551      76464.5
     -1.91846      86387.1
     -2.06142      97595.5
     -2.20437       110256
     -2.34733       124557
     -2.49028       140709
     -2.63324       158954
     -2.77619       179560
     -2.91915       202834
      -3.0621       229120
     -3.20506       258808
     -3.34801       292337
     -3.49097       330203
     -3.63392       372967
     -3.77688       421260
     -3.91984       475798
     -4.06279       537385
     -4.20575       606932
      -4.3487       685466
     -4.49166       774147
     -4.63461       874283
     -4.77757       987352
     -4.92052  1.11502e+06
     -5.06348  1.25918e+06
     -5.20643  1.42194e+06
     -5.34939   1.6057e+06
     -5.49234  1.81318e+06
      -5.6353  2.04743e+06
     -5.77826  2.31189e+06
     -5.92121  2.61046e+06
     -6.06417  2.94753e+06
     -6.20712  3.32805e+06
     -6.35008  3.75762e+06
     -6.49303  4.24256e+06
     -6.63599  4.78997e+06
     -6.77894  5.40791e+06
      -6.9219  6.10544e+06
     -7.06485  6.89279e+06
     -7.20781  7.78152e+06
     -7.35076  8.78465e+06
     -7.49372   9.9169e+06
     -7.63667  1.11948e+07
     -7.77963  1.26372e+07
     -7.92259  1.42651e+07
     -8.06554  1.61023e+07
      -8.2085  1.81758e+07
     -8.35145  2.05158e+07
     -8.49441  2.31566e+07
     -8.63736  2.61368e+07
     -8.78032  2.94999e+07
     -8.92327  3.32949e+07
     -9.06623  3.75774e+07
     -9.20918  4.24098e+07
     -9.35214  4.78626e+07
     -9.49509  5.40153e+07
     -9.63805  6.09575e+07
       -9.781  6.87905e+07
     -9.92396  7.76284e+07
     -10.0669  8.75996e+07
     -10.2099  9.88495e+07
     -10.3528  1.11542e+08
     -10.4958  1.25861e+08
     -10.6387  1.42015e+08
     -10.7817  1.60239e+08
     -10.9246  1.80797e+08
     -11.0676  2.03989e+08
     -11.2106   2.3015e+08
     -11.3535  2.59661e+08
     -11.4965  2.92948e+08
     -11.6394  3.30496e+08
     -11.7824  3.72848e+08
     -11.9253  4.20617e+08
     -12.0683  4.74495e+08
     -12.2112  5.35263e+08
     -12.3542  6.03799e+08
     -12.4972  6.81094e+08
     -12.6401  7.68266e+08
     -12.7831  8.66575e+08
      -12.926  9.77441e+08
      -13.069  1.10246e+09
     -13.2119  1.24345e+09
     -13.3549  1.40243e+09
     -13.4978   1.5817e+09
     -13.6408  1.78385e+09
     -13.7838  2.01178e+09
     -13.9267  2.26878e+09
     -14.0697  2.55855e+09
     -14.2126  2.88526e+09
     -14.3556  3.25361e+09
     -14.4985   3.6689e+09
     -14.6415  4.13709e+09
     -14.7844  4.66493e+09
     -14.9274  5.25997e+09
     -15.0704  5.93078e+09
     -15.2133  6.68697e+09
     -15.3563  7.53939e+09
     -15.4992  8.50027e+09
     -15.6422  9.58337e+09
     -15.7851  1.08042e+10
     -15.9281  1.21803e+10
      -16.071  1.37313e+10
      -16.214  1.54794e+10
      -16.357  1.74495e+10
     -16.4999    1.967e+10
     -16.6429  2.21725e+10
     -16.7858  2.49927e+10
     -16.9288  2.81708e+10
     -17.0717  3.17523e+10
     -17.2147  3.57882e+10
     -17.3576   4.0336e+10
     -17.5006  4.54606e+10
     -17.6435  5.12348e+10
     -17.7865  5.77411e+10
     -17.9295  6.50719e+10
     -18.0724  7.33315e+10
     -18.2154  8.26373e+10
     -18.3583  9.31215e+10
     -18.5013  1.04933e+11
     -18.6442   1.1824e+11
     -18.7872   1.3323e+11
     -18.9301  1.50117e+11
     -19.0731   1.6914e+11
     -19.2161  1.90569e+11
      -19.359  2.14707e+11
      -19.502  2.41896e+11
     -19.6449   2.7252e+11
     -19.7879  3.07013e+11
     -19.9308  3.45863e+11
     -20.0738  3.89618e+11
     -20.2167  4.38897e+11
     -20.3597  4.94395e+11
     -20.5027  5.56895e+11
     -20.6456  6.27279e+11
     -20.7886  7.06539e+11
     -20.9315  7.95792e+11
     -21.0745  8.96294e+11
     -21.2174  1.00946e+12
     -21.3604  1.13688e+12
     -21.5033  1.28035e+12
     -21.6463  1.44188e+12
     -21.7893  1.62375e+12
     -21.9322   1.8285e+12
     -22.0752  2.05902e+12
     -22.2181  2.31853e+12
     -22.3611  2.61067e+12
      -22.504  2.93953e+12
      -22.647  3.30973e+12
     -22.7899  3.72643e+12
     -22.9329  4.19548e+12
     -23.0759  4.72343e+12
     -23.2188  5.31766e+12
     -23.3618  5.98649e+12
     -23.5047  6.73923e+12
     -23.6477  7.58639e+12
     -23.7906  8.53981e+12
     -23.9336  9.61277e+12
     -24.0765  1.08202e+13
     -24.2195  1.21789e+13
     -24.3625  1.37079e+13
     -24.5054  1.54283e+13
     -24.6484  1.73642e+13
     -24.7913  1.95423e+13
     -24.9343   2.1993e+13
     -25.0772  2.47503e+13
     -25.2202  2.78524e+13
     -25.3631  3.13422e+13
     -25.5061  3.52683e+13
      -25.649  3.96848e+13
      -25.792  4.46531e+13
      -25.935  5.02417e+13
     -26.0779   5.6528e+13
     -26.2209  6.35988e+13
     -26.3638   7.1552e+13
     -26.5068  8.04971e+13
     -26.6497  9.05576e+13
     -26.7927  1.01872e+14
     -26.9356  1.14597e+14
     -27.0786  1.28906e+14
     -27.2216  1.44998e+14
     -27.3645  1.63093e+14
     -27.5075  1.83441e+14
     -27.6504  2.06321e+14
     -27.7934  2.32047e+14
     -27.9363  2.60972e+14
     -28.0793  2.93494e+14
     -28.2222  3.30057e+14
     -28.3652  3.71164e+14
     -28.5082  4.17376e+14
     -28.6511  4.69326e+14
     -28.7941  5.27725e+14
      -28.937  5.93371e+14
       -29.08   6.6716e+14
     -29.2229    7.501e+14
     -29.3659  8.43322e+14
     -29.5088  9.48098e+14
     -29.6518  1.06585e+15
     -29.7948  1.19819e+15
     -29.9377  1.34691e+15
     -30.0807  1.51403e+15
     -30.2236  1.70184e+15
     -30.3666  1.91287e+15
     -30.5095  2.14999e+15
     -30.6525  2.41643e+15
     -30.7954  2.71579e+15
     -30.9384  3.05212e+15
     -31.0814  3.42999e+15
     -31.2243  3.85449e+15
     -31.3673  4.33138e+15
     -31.5102  4.86709e+15
     -31.6532  5.46885e+15
     -31.7961   6.1448e+15
     -31.9391  6.90408e+15
      -32.082  7.75688e+15
      -32.225  8.71471e+15
     -32.3679  9.79046e+15
     -32.5109  1.09986e+16
     -32.6539  1.23554e+16
     -32.7968   1.3879e+16
     -32.9398    1.559e+16
     -33.0827  1.75112e+16
     -33.2257  1.96685e+16
     -33.3686  2.20907e+16
     -33.5116  2.48102e+16
     -33.6545  2.78635e+16
     -33.7975  3.12914e+16
     -33.9405  3.51395e+16
     -34.0834  3.94592e+16
     -34.2264  4.43082e+16
     -34.3693  4.97513e+16
     -34.5123  5.58605e+16
     -34.6552  6.27174e+16
     -34.7982  7.04134e+16
     -34.9411  7.90509e+16
     -35.0841  8.87444e+16
     -35.2271  9.96224e+16
       -35.37  1.11829e+17
      -35.513  1.25527e+17
     -35.6559  1.40896e+17
     -35.7989  1.58141e+17
     -35.9418  1.77488e+17
     -36.0848  1.99196e+17
     -36.2277   2.2355e+17
     -36.3707  2.50871e+17
     -36.5137   2.8152e+17
     -36.6566  3.15901e+17
     -36.7996  3.54468e+17
     -36.9425  3.97726e+17
     -37.0855  4.46243e+17
     -37.2284  5.00657e+17
     -37.3714  5.61686e+17
     -37.5143  6.30126e+17
     -37.6573  7.06876e+17
     -37.8003  7.92941e+17
     -37.9432  8.89444e+17
     -38.0862  9.97654e+17
     -38.2291  1.11897e+18
     -38.3721  1.25498e+18
      -38.515  1.40746e+18
      -38.658   1.5784e+18
     -38.8009  1.77001e+18
     -38.9439   1.9848e+18
     -39.0869  2.22555e+18
     -39.2298  2.49541e+18
     -39.3728  2.79787e+18
     -39.5157  3.13683e+18
     -39.6587  3.51669e+18
     -39.8016  3.94239e+18
     -39.9446  4.41941e+18
     -40.0875  4.95389e+18
     -40.2305  5.55275e+18
     -40.3734  6.22375e+18
     -40.5164  6.97557e+18
     -40.6594  7.81781e+18
     -40.8023  8.76136e+18
     -40.9453  9.81835e+18
     -41.0882  1.10024e+19
     -41.2312  1.23287e+19
     -41.3741  1.38141e+19
     -41.5171  1.54777e+19
       -41.66   1.7341e+19
      -41.803  1.94276e+19
      -41.946  2.17643e+19
     -42.0889  2.43808e+19
     -42.2319  2.73105e+19
     -42.3748  3.05911e+19
     -42.5178  3.42635e+19
     -42.6607  3.83747e+19
     -42.8037   4.2977e+19
     -42.9466  4.81292e+19
     -43.0896  5.38956e+19
     -43.2326  6.03497e+19
     -43.3755  6.75734e+19
     -43.5185  7.56591e+19
     -43.6614  8.47074e+19
     -43.8044  9.48326e+19
     -43.9473  1.06163e+20
     -44.0903   1.1884e+20
     -44.2332  1.33024e+20
     -44.3762  1.48893e+20
     -44.5192  1.66645e+20
     -44.6621  1.86505e+20
     -44.8051  2.08724e+20
      -44.948  2.33575e+20
      -45.091  2.61373e+20
     -45.2339  2.92465e+20
     -45.3769  3.27242e+20
     -45.5198  3.66133e+20
     -45.6628   4.0962e+20
     -45.8058  4.58247e+20
     -45.9487  5.12628e+20
     -46.0917  5.73422e+20
     -46.2346  6.41395e+20
     -46.3776  7.17383e+20
     -46.5205  8.02333e+20
     -46.6635  8.97301e+20
     -46.8064  1.00343e+21
     -46.9494  1.12204e+21
     -47.0924  1.25459e+21
     -47.2353  1.40273e+21
     -47.3783  1.56824e+21
     -47.5212  1.75317e+21
     -47.6642   1.9598e+21
     -47.8071  2.19072e+21
     -47.9501  2.44867e+21
      -48.093  2.73681e+21
      -48.236  3.05869e+21
     -48.3789  3.41823e+21
     -48.5219  3.81977e+21
     -48.6649  4.26821e+21
     -48.8078  4.76893e+21
     -48.9508  5.32817e+21
     -49.0937  5.95276e+21
     -49.2367  6.65003e+21
     -49.3796  7.42857e+21
     -49.5226  8.29785e+21
     -49.6655  9.26852e+21
     -49.8085  1.03519e+22
     -49.9515  1.15611e+22
     -50.0944  1.29106e+22
