Temperature = 887.054K
THERMAL DISTRIBUTIONS:
  E, kcal/mol           W1
      84.0006  2.67726e-08
      83.8576  2.87894e-08
      83.7147   3.0958e-08
      83.5717  3.32897e-08
      83.4287  3.57968e-08
      83.2858  3.84925e-08
      83.1428  4.13909e-08
      82.9999  4.45073e-08
      82.8569  4.78581e-08
       82.714  5.14608e-08
       82.571  5.53344e-08
      82.4281  5.94991e-08
      82.2851   6.3977e-08
      82.1421  6.87914e-08
      81.9992  7.39677e-08
      81.8562   7.9533e-08
      81.7133  8.55165e-08
      81.5703  9.19496e-08
      81.4274   9.8866e-08
      81.2844  1.06302e-07
      81.1415  1.14297e-07
      80.9985  1.22892e-07
      80.8555  1.32132e-07
      80.7126  1.42067e-07
      80.5696  1.52747e-07
      80.4267   1.6423e-07
      80.2837  1.76574e-07
      80.1408  1.89845e-07
      79.9978  2.04113e-07
      79.8549  2.19451e-07
      79.7119   2.3594e-07
      79.5689  2.53667e-07
       79.426  2.72724e-07
       79.283   2.9321e-07
      79.1401  3.15234e-07
      78.9971   3.3891e-07
      78.8542  3.64361e-07
      78.7112  3.91722e-07
      78.5683  4.21134e-07
      78.4253  4.52752e-07
      78.2823   4.8674e-07
      78.1394  5.23277e-07
      77.9964  5.62552e-07
      77.8535  6.04772e-07
      77.7105  6.50156e-07
      77.5676  6.98942e-07
      77.4246  7.51383e-07
      77.2817  8.07754e-07
      77.1387  8.68348e-07
      76.9957  9.33481e-07
      76.8528  1.00349e-06
      76.7098  1.07875e-06
      76.5669  1.15964e-06
      76.4239   1.2466e-06
       76.281  1.34006e-06
       76.138  1.44052e-06
      75.9951   1.5485e-06
      75.8521  1.66456e-06
      75.7092  1.78931e-06
      75.5662   1.9234e-06
      75.4232  2.06753e-06
      75.2803  2.22243e-06
      75.1373  2.38893e-06
      74.9944  2.56789e-06
      74.8514  2.76023e-06
      74.7085  2.96696e-06
      74.5655  3.18915e-06
      74.4226  3.42796e-06
      74.2796  3.68463e-06
      74.1366  3.96049e-06
      73.9937  4.25697e-06
      73.8507  4.57562e-06
      73.7078  4.91809e-06
      73.5648  5.28615e-06
      73.4219  5.68172e-06
      73.2789  6.10685e-06
       73.136  6.56375e-06
       72.993  7.05478e-06
        72.85   7.5825e-06
      72.7071  8.14963e-06
      72.5641  8.75912e-06
      72.4212  9.41414e-06
      72.2782  1.01181e-05
      72.1353  1.08746e-05
      71.9923  1.16875e-05
      71.8494  1.25612e-05
      71.7064  1.35001e-05
      71.5634   1.4509e-05
      71.4205  1.55932e-05
      71.2775  1.67584e-05
      71.1346  1.80105e-05
      70.9916   1.9356e-05
      70.8487  2.08019e-05
      70.7057  2.23556e-05
      70.5628  2.40253e-05
      70.4198  2.58194e-05
      70.2768  2.77473e-05
      70.1339   2.9819e-05
      69.9909  3.20452e-05
       69.848  3.44373e-05
       69.705  3.70076e-05
      69.5621  3.97696e-05
      69.4191  4.27374e-05
      69.2762  4.59264e-05
      69.1332  4.93529e-05
      68.9903  5.30348e-05
      68.8473  5.69909e-05
      68.7043  6.12416e-05
      68.5614   6.5809e-05
      68.4184  7.07165e-05
      68.2755  7.59894e-05
      68.1325  8.16549e-05
      67.9896  8.77422e-05
      67.8466  9.42826e-05
      67.7037   0.00010131
      67.5607   0.00010886
      67.4177  0.000116972
      67.2748  0.000125688
      67.1318  0.000135052
      66.9889  0.000145113
      66.8459  0.000155922
       66.703  0.000167535
        66.56  0.000180011
      66.4171  0.000193415
      66.2741  0.000207816
      66.1311  0.000223288
      65.9882   0.00023991
      65.8452  0.000257767
      65.7023  0.000276951
      65.5593  0.000297561
      65.4164  0.000319702
      65.2734  0.000343488
      65.1305  0.000369042
      64.9875  0.000396493
      64.8445  0.000425983
      64.7016  0.000457663
      64.5586  0.000491696
      64.4157  0.000528255
      64.2727  0.000567529
      64.1298  0.000609718
      63.9868  0.000655038
      63.8439  0.000703721
      63.7009  0.000756017
      63.5579  0.000812194
       63.415  0.000872538
       63.272  0.000937358
      63.1291   0.00100699
      62.9861   0.00108178
      62.8432   0.00116212
      62.7002   0.00124841
      62.5573   0.00134111
      62.4143   0.00144067
      62.2713   0.00154762
      62.1284   0.00166249
      61.9854   0.00178587
      61.8425    0.0019184
      61.6995   0.00206074
      61.5566   0.00221363
      61.4136   0.00237785
      61.2707   0.00255423
      61.1277   0.00274367
      60.9848   0.00294713
      60.8418   0.00316566
      60.6988   0.00340037
      60.5559   0.00365246
      60.4129    0.0039232
        60.27   0.00421397
       60.127   0.00452627
      59.9841   0.00486167
      59.8411   0.00522188
      59.6982   0.00560873
      59.5552    0.0060242
      59.4122    0.0064704
      59.2693   0.00694958
      59.1263    0.0074642
      58.9834   0.00801686
      58.8404   0.00861038
      58.6975   0.00924776
      58.5545   0.00993224
      58.4116    0.0106673
      58.2686    0.0114567
      58.1256    0.0123044
      57.9827    0.0132147
      57.8397    0.0141922
      57.6968    0.0152419
      57.5538    0.0163691
      57.4109    0.0175796
      57.2679    0.0188794
       57.125    0.0202752
       56.982     0.021774
       56.839    0.0233833
      56.6961    0.0251115
      56.5531    0.0269671
      56.4102    0.0289596
      56.2672    0.0310991
      56.1243    0.0333964
      55.9813     0.035863
      55.8384    0.0385116
      55.6954    0.0413554
      55.5524    0.0444089
      55.4095    0.0476874
      55.2665    0.0512075
      55.1236     0.054987
      54.9806     0.059045
      54.8377    0.0634019
      54.6947    0.0680797
      54.5518    0.0731021
      54.4088    0.0784944
      54.2658    0.0842837
      54.1229    0.0904992
      53.9799    0.0971723
       53.837     0.104337
       53.694     0.112028
      53.5511     0.120286
      53.4081     0.129151
      53.2652     0.138668
      53.1222     0.148885
      52.9793     0.159854
      52.8363      0.17163
      52.6933     0.184271
      52.5504     0.197842
      52.4074      0.21241
      52.2645      0.22805
      52.1215     0.244838
      51.9786     0.262861
      51.8356     0.282207
      51.6927     0.302975
      51.5497     0.325269
      51.4067     0.349199
      51.2638     0.374887
      51.1208     0.402462
      50.9779     0.432061
      50.8349     0.463832
       50.692     0.497936
       50.549     0.534542
      50.4061     0.573835
      50.2631     0.616011
      50.1201      0.66128
      49.9772      0.70987
      49.8342     0.762024
      49.6913     0.818003
      49.5483     0.878085
      49.4054     0.942573
      49.2624      1.01179
      49.1195      1.08608
      48.9765      1.16581
      48.8335      1.25138
      48.6906      1.34322
      48.5476      1.44179
      48.4047      1.54759
      48.2617      1.66112
      48.1188      1.78298
      47.9758      1.91375
      47.8329       2.0541
      47.6899      2.20471
      47.5469      2.36636
       47.404      2.53983
       47.261      2.72599
      47.1181      2.92577
      46.9751      3.14016
      46.8322      3.37023
      46.6892      3.61713
      46.5463      3.88208
      46.4033      4.16639
      46.2604      4.47149
      46.1174      4.79889
      45.9744      5.15021
      45.8315       5.5272
      45.6885      5.93172
      45.5456       6.3658
      45.4026      6.83158
      45.2597      7.33137
      45.1167      7.86765
      44.9738      8.44308
      44.8308      9.06052
      44.6878      9.72301
      44.5449      10.4339
      44.4019      11.1966
       44.259      12.0149
       44.116      12.8929
      43.9731       13.835
      43.8301      14.8457
      43.6872      15.9302
      43.5442      17.0937
      43.4012       18.342
      43.2583      19.6813
      43.1153      21.1182
      42.9724      22.6597
      42.8294      24.3136
      42.6865      26.0879
      42.5435      27.9915
      42.4006      30.0336
      42.2576      32.2244
      42.1146      34.5747
      41.9717       37.096
      41.8287      39.8008
      41.6858      42.7025
      41.5428      45.8152
      41.3999      49.1543
      41.2569      52.7363
       41.114      56.5788
       40.971      60.7006
       40.828      65.1221
      40.6851      69.8649
      40.5421      74.9524
      40.3992      80.4096
      40.2562      86.2633
      40.1133      92.5422
      39.9703      99.2772
      39.8274      106.501
      39.6844       114.25
      39.5414      122.561
      39.3985      131.475
      39.2555      141.036
      39.1126      151.292
      38.9696      162.291
      38.8267      174.088
      38.6837      186.741
      38.5408      200.311
      38.3978      214.865
      38.2549      230.474
      38.1119      247.215
      37.9689      265.169
       37.826      284.425
       37.683      305.075
      37.5401      327.221
      37.3971      350.971
      37.2542      376.441
      37.1112      403.755
      36.9683      433.047
      36.8253      464.459
      36.6823      498.145
      36.5394      534.267
      36.3964      573.004
      36.2535      614.542
      36.1105      659.085
      35.9676      706.849
      35.8246      758.066
      35.6817      812.986
      35.5387      871.876
      35.3957      935.021
      35.2528      1002.73
      35.1098      1075.33
      34.9669      1153.17
      34.8239      1236.64
       34.681      1326.13
       34.538      1422.09
      34.3951      1524.97
      34.2521      1635.27
      34.1091      1753.54
      33.9662      1880.34
      33.8232      2016.28
      33.6803      2162.03
      33.5373       2318.3
      33.3944      2485.82
      33.2514      2665.43
      33.1085      2857.98
      32.9655      3064.41
      32.8225      3285.71
      32.6796      3522.96
      32.5366      3777.29
      32.3937      4049.95
      32.2507      4342.23
      32.1078      4655.56
      31.9648      4991.44
      31.8219      5351.49
      31.6789      5737.45
      31.5359      6151.18
       31.393      6594.68
        31.25      7070.06
      31.1071      7579.63
      30.9641      8125.84
      30.8212      8711.31
      30.6782      9338.86
      30.5353      10011.5
      30.3923      10732.5
      30.2494      11505.2
      30.1064      12333.5
      29.9634      13221.2
      29.8205      14172.7
      29.6775      15192.5
      29.5346      16285.4
      29.3916      17456.8
      29.2487      18712.2
      29.1057      20057.7
      28.9628      21499.7
      28.8198      23045.1
      28.6768      24701.2
      28.5339      26476.1
      28.3909      28378.2
       28.248      30416.6
       28.105        32601
      27.9621      34941.9
      27.8191      37450.5
      27.6762      40138.6
      27.5332      43019.2
      27.3902        46106
      27.2473      49413.7
      27.1043      52958.1
      26.9614        56756
      26.8184      60825.5
      26.6755      65186.1
      26.5325      69858.5
      26.3896      74864.9
      26.2466      80229.1
      26.1036      85976.6
      25.9607      92134.7
      25.8177      98732.7
      25.6748       105802
      25.5318       113376
      25.3889       121491
      25.2459       130185
       25.103       139499
        24.96       149478
       24.817       160169
      24.6741       171623
      24.5311       183893
      24.3882       197038
      24.2452       211120
      24.1023       226206
      23.9593       242366
      23.8164       259678
      23.6734       278223
      23.5305       298089
      23.3875       319369
      23.2445       342164
      23.1016       366582
      22.9586       392737
      22.8157       420753
      22.6727       450761
      22.5298       482904
      22.3868       517333
      22.2439       554208
      22.1009       593705
      21.9579       636009
       21.815       681318
       21.672       729845
      21.5291       781819
      21.3861       837483
      21.2432       897099
      21.1002       960946
      20.9573  1.02932e+06
      20.8143  1.10255e+06
      20.6713  1.18098e+06
      20.5284  1.26496e+06
      20.3854   1.3549e+06
      20.2425  1.45122e+06
      20.0995  1.55436e+06
      19.9566  1.66481e+06
      19.8136  1.78308e+06
      19.6707  1.90974e+06
      19.5277  2.04536e+06
      19.3847  2.19058e+06
      19.2418  2.34609e+06
      19.0988   2.5126e+06
      18.9559  2.69089e+06
      18.8129  2.88179e+06
        18.67   3.0862e+06
       18.527  3.30506e+06
      18.3841  3.53939e+06
      18.2411  3.79029e+06
      18.0981  4.05892e+06
      17.9552  4.34653e+06
      17.8122  4.65445e+06
      17.6693  4.98412e+06
      17.5263  5.33707e+06
      17.3834  5.71493e+06
      17.2404  6.11946e+06
      17.0975  6.55254e+06
      16.9545  7.01617e+06
      16.8115  7.51249e+06
      16.6686  8.04382e+06
      16.5256  8.61261e+06
      16.3827  9.22148e+06
      16.2397  9.87327e+06
      16.0968   1.0571e+07
      15.9538  1.13178e+07
      15.8109  1.21173e+07
      15.6679   1.2973e+07
       15.525   1.3889e+07
       15.382  1.48694e+07
       15.239  1.59188e+07
      15.0961  1.70421e+07
      14.9531  1.82443e+07
      14.8102  1.95311e+07
      14.6672  2.09083e+07
      14.5243  2.23824e+07
      14.3813    2.396e+07
      14.2384  2.56484e+07
      14.0954  2.74554e+07
      13.9524  2.93893e+07
      13.8095   3.1459e+07
      13.6665   3.3674e+07
      13.5236  3.60443e+07
      13.3806   3.8581e+07
      13.2377  4.12955e+07
      13.0947  4.42004e+07
      12.9518   4.7309e+07
      12.8088  5.06354e+07
      12.6658   5.4195e+07
      12.5229  5.80039e+07
      12.3799  6.20795e+07
       12.237  6.64406e+07
       12.094   7.1107e+07
      11.9511     7.61e+07
      11.8081  8.14423e+07
      11.6652  8.71584e+07
      11.5222  9.32743e+07
      11.3792  9.98178e+07
      11.2363  1.06819e+08
      11.0933  1.14309e+08
      10.9504  1.22323e+08
      10.8074  1.30896e+08
      10.6645  1.40068e+08
      10.5215  1.49881e+08
      10.3786  1.60379e+08
      10.2356  1.71609e+08
      10.0926  1.83623e+08
      9.94969  1.96475e+08
      9.80674  2.10223e+08
      9.66378  2.24929e+08
      9.52083  2.40661e+08
      9.37787  2.57489e+08
      9.23492   2.7549e+08
      9.09196  2.94744e+08
        8.949  3.15339e+08
      8.80605  3.37368e+08
      8.66309   3.6093e+08
      8.52014  3.86131e+08
      8.37718  4.13086e+08
      8.23423  4.41915e+08
      8.09127  4.72748e+08
      7.94832  5.05725e+08
      7.80536  5.40994e+08
      7.66241  5.78713e+08
      7.51945  6.19051e+08
       7.3765  6.62191e+08
      7.23354  7.08326e+08
      7.09059  7.57662e+08
      6.94763  8.10422e+08
      6.80467  8.66842e+08
      6.66172  9.27175e+08
      6.51876   9.9169e+08
      6.37581  1.06068e+09
      6.23285  1.13445e+09
       6.0899  1.21332e+09
      5.94694  1.29767e+09
      5.80399  1.38785e+09
      5.66103  1.48427e+09
      5.51808  1.58737e+09
      5.37512   1.6976e+09
      5.23217  1.81546e+09
      5.08921  1.94146e+09
      4.94626  2.07618e+09
       4.8033   2.2202e+09
      4.66034  2.37418e+09
      4.51739  2.53879e+09
      4.37443  2.71477e+09
      4.23148   2.9029e+09
      4.08852  3.10401e+09
      3.94557    3.319e+09
      3.80261  3.54882e+09
      3.65966  3.79449e+09
       3.5167  4.05709e+09
      3.37375   4.3378e+09
      3.23079  4.63784e+09
      3.08784  4.95855e+09
      2.94488  5.30135e+09
      2.80192  5.66775e+09
      2.65897  6.05936e+09
      2.51601  6.47793e+09
      2.37306  6.92528e+09
       2.2301   7.4034e+09
      2.08715  7.91439e+09
      1.94419  8.46049e+09
      1.80124  9.04412e+09
      1.65828  9.66785e+09
      1.51533  1.03344e+10
      1.37237  1.10467e+10
      1.22942  1.18079e+10
      1.08646  1.26213e+10
     0.943505  1.34905e+10
      0.80055  1.44194e+10
     0.657595  1.54118e+10
     0.514639  1.64723e+10
     0.371684  1.76055e+10
     0.228729  1.88163e+10
    0.0857732  2.01099e+10
   -0.0571821  2.14921e+10
    -0.200137  2.29689e+10
    -0.343093  2.45467e+10
    -0.486048  2.62324e+10
    -0.629004  2.80334e+10
    -0.771959  2.99574e+10
    -0.914914  3.20129e+10
     -1.05787  3.42088e+10
     -1.20082  3.65547e+10
     -1.34378  3.90607e+10
     -1.48674  4.17377e+10
     -1.62969  4.45973e+10
     -1.77265  4.76519e+10
      -1.9156  5.09148e+10
     -2.05856  5.44001e+10
     -2.20151  5.81229e+10
     -2.34447  6.20993e+10
     -2.48742  6.63464e+10
     -2.63038  7.08827e+10
     -2.77333  7.57276e+10
     -2.91629  8.09022e+10
     -3.05924  8.64287e+10
      -3.2022  9.23309e+10
     -3.34516  9.86343e+10
     -3.48811  1.05366e+11
     -3.63107  1.12555e+11
     -3.77402  1.20232e+11
     -3.91698   1.2843e+11
     -4.05993  1.37184e+11
     -4.20289  1.46532e+11
     -4.34584  1.56514e+11
      -4.4888  1.67173e+11
     -4.63175  1.78554e+11
     -4.77471  1.90706e+11
     -4.91766  2.03681e+11
     -5.06062  2.17535e+11
     -5.20357  2.32326e+11
     -5.34653  2.48118e+11
     -5.48949  2.64977e+11
     -5.63244  2.82977e+11
      -5.7754  3.02193e+11
     -5.91835  3.22708e+11
     -6.06131  3.44608e+11
     -6.20426  3.67986e+11
     -6.34722  3.92943e+11
     -6.49017  4.19584e+11
     -6.63313  4.48022e+11
     -6.77608  4.78377e+11
     -6.91904  5.10779e+11
     -7.06199  5.45364e+11
     -7.20495  5.82278e+11
      -7.3479  6.21678e+11
     -7.49086  6.63731e+11
     -7.63382  7.08612e+11
     -7.77677  7.56513e+11
     -7.91973  8.07635e+11
     -8.06268  8.62193e+11
     -8.20564  9.20416e+11
     -8.34859   9.8255e+11
     -8.49155  1.04886e+12
      -8.6345  1.11961e+12
     -8.77746  1.19512e+12
     -8.92041  1.27568e+12
     -9.06337  1.36165e+12
     -9.20632  1.45339e+12
     -9.34928  1.55126e+12
     -9.49224   1.6557e+12
     -9.63519  1.76712e+12
     -9.77815  1.88601e+12
      -9.9211  2.01284e+12
     -10.0641  2.14816e+12
      -10.207  2.29252e+12
       -10.35  2.44653e+12
     -10.4929  2.61083e+12
     -10.6359  2.78611e+12
     -10.7788  2.97308e+12
     -10.9218  3.17253e+12
     -11.0647  3.38528e+12
     -11.2077  3.61222e+12
     -11.3507  3.85429e+12
     -11.4936  4.11248e+12
     -11.6366  4.38787e+12
     -11.7795   4.6816e+12
     -11.9225  4.99487e+12
     -12.0654  5.32899e+12
     -12.2084  5.68532e+12
     -12.3513  6.06534e+12
     -12.4943   6.4706e+12
     -12.6373  6.90278e+12
     -12.7802  7.36366e+12
     -12.9232  7.85512e+12
     -13.0661  8.37918e+12
     -13.2091    8.938e+12
      -13.352  9.53386e+12
      -13.495  1.01692e+13
     -13.6379  1.08466e+13
     -13.7809  1.15689e+13
     -13.9239   1.2339e+13
     -14.0668    1.316e+13
     -14.2098  1.40353e+13
     -14.3527  1.49685e+13
     -14.4957  1.59633e+13
     -14.6386  1.70238e+13
     -14.7816  1.81544e+13
     -14.9245  1.93595e+13
     -15.0675  2.06442e+13
     -15.2104  2.20136e+13
     -15.3534  2.34732e+13
     -15.4964   2.5029e+13
     -15.6393  2.66873e+13
     -15.7823  2.84547e+13
     -15.9252  3.03384e+13
     -16.0682   3.2346e+13
     -16.2111  3.44857e+13
     -16.3541  3.67659e+13
      -16.497  3.91959e+13
       -16.64  4.17854e+13
      -16.783  4.45449e+13
     -16.9259  4.74853e+13
     -17.0689  5.06186e+13
     -17.2118  5.39572e+13
     -17.3548  5.75146e+13
     -17.4977  6.13049e+13
     -17.6407  6.53432e+13
     -17.7836  6.96458e+13
     -17.9266  7.42299e+13
     -18.0696  7.91135e+13
     -18.2125  8.43162e+13
     -18.3555  8.98586e+13
     -18.4984  9.57629e+13
     -18.6414  1.02052e+14
     -18.7843  1.08752e+14
     -18.9273  1.15888e+14
     -19.0702   1.2349e+14
     -19.2132  1.31587e+14
     -19.3562   1.4021e+14
     -19.4991  1.49395e+14
     -19.6421  1.59178e+14
      -19.785  1.69596e+14
      -19.928  1.80692e+14
     -20.0709  1.92508e+14
     -20.2139  2.05091e+14
     -20.3568  2.18491e+14
     -20.4998   2.3276e+14
     -20.6428  2.47953e+14
     -20.7857  2.64131e+14
     -20.9287  2.81358e+14
     -21.0716  2.99698e+14
     -21.2146  3.19226e+14
     -21.3575  3.40015e+14
