Temperature = 1301.29K
THERMAL DISTRIBUTIONS:
  E, kcal/mol           W1
      116.926  0.000742907
      116.783  0.000779441
       116.64  0.000817767
      116.497  0.000857974
      116.354  0.000900153
      116.211  0.000944403
      116.068  0.000990822
      115.925   0.00103952
      115.782    0.0010906
      115.639    0.0011442
      115.496   0.00120041
      115.354   0.00125939
      115.211   0.00132126
      115.068   0.00138616
      114.925   0.00145424
      114.782   0.00152565
      114.639   0.00160057
      114.496   0.00167916
      114.353    0.0017616
       114.21   0.00184808
      114.067    0.0019388
      113.924   0.00203396
      113.781   0.00213378
      113.638   0.00223848
      113.495   0.00234832
      113.352   0.00246354
      113.209   0.00258439
      113.066   0.00271116
      112.923   0.00284414
       112.78   0.00298363
      112.637   0.00312994
      112.494   0.00328341
      112.351   0.00344439
      112.209   0.00361325
      112.066   0.00379037
      111.923   0.00397615
       111.78   0.00417102
      111.637   0.00437541
      111.494   0.00458981
      111.351   0.00481468
      111.208   0.00505055
      111.065   0.00529795
      110.922   0.00555745
      110.779   0.00582962
      110.636    0.0061151
      110.493   0.00641453
       110.35   0.00672859
      110.207   0.00705799
      110.064   0.00740348
      109.921   0.00776584
      109.778   0.00814591
      109.635   0.00854453
      109.492   0.00896262
      109.349   0.00940112
      109.206   0.00986103
      109.063    0.0103434
      108.921    0.0108493
      108.778    0.0113799
      108.635    0.0119364
      108.492      0.01252
      108.349    0.0131321
      108.206    0.0137741
      108.063    0.0144474
       107.92    0.0151535
      107.777    0.0158941
      107.634    0.0166707
      107.491    0.0174853
      107.348    0.0183395
      107.205    0.0192354
      107.062     0.020175
      106.919    0.0211603
      106.776    0.0221937
      106.633    0.0232774
       106.49    0.0244139
      106.347    0.0256058
      106.204    0.0268557
      106.061    0.0281666
      105.918    0.0295412
      105.776    0.0309828
      105.633    0.0324946
       105.49      0.03408
      105.347    0.0357425
      105.204     0.037486
      105.061    0.0393143
      104.918    0.0412316
      104.775    0.0432422
      104.632    0.0453506
      104.489    0.0475616
      104.346    0.0498801
      104.203    0.0523114
       104.06    0.0548609
      103.917    0.0575343
      103.774    0.0603378
      103.631    0.0632776
      103.488    0.0663602
      103.345    0.0695927
      103.202    0.0729823
      103.059    0.0765365
      102.916    0.0802635
      102.773    0.0841715
      102.631    0.0882694
      102.488    0.0925663
      102.345    0.0970719
      102.202     0.101796
      102.059      0.10675
      101.916     0.111944
      101.773     0.117391
       101.63     0.123101
      101.487     0.129089
      101.344     0.135368
      101.201     0.141951
      101.058     0.148854
      100.915     0.156091
      100.772     0.163679
      100.629     0.171636
      100.486     0.179978
      100.343     0.188725
        100.2     0.197896
      100.057     0.207511
      99.9144     0.217593
      99.7714     0.228163
      99.6284     0.239245
      99.4855     0.250865
      99.3425     0.263047
      99.1996      0.27582
      99.0566     0.289211
      98.9137     0.303251
      98.7707      0.31797
      98.6278     0.333403
      98.4848     0.349582
      98.3418     0.366545
      98.1989     0.384329
      98.0559     0.402973
       97.913      0.42252
        97.77     0.443013
      97.6271     0.464497
      97.4841      0.48702
      97.3412     0.510633
      97.1982     0.535388
      97.0552      0.56134
      96.9123     0.588547
      96.7693     0.617069
      96.6264      0.64697
      96.4834     0.678317
      96.3405     0.711178
      96.1975     0.745627
      96.0546     0.781741
      95.9116       0.8196
      95.7686     0.859287
      95.6257     0.900892
      95.4827     0.944505
      95.3398     0.990225
      95.1968      1.03815
      95.0539      1.08839
      94.9109      1.14106
       94.768      1.19627
       94.625      1.25414
       94.482      1.31481
      94.3391       1.3784
      94.1961      1.44506
      94.0532      1.51493
      93.9102      1.58818
      93.7673      1.66496
      93.6243      1.74544
      93.4814       1.8298
      93.3384      1.91822
      93.1954      2.01091
      93.0525      2.10807
      92.9095      2.20991
      92.7666      2.31665
      92.6236      2.42854
      92.4807      2.54582
      92.3377      2.66874
      92.1948      2.79759
      92.0518      2.93264
      91.9089      3.07419
      91.7659      3.22256
      91.6229      3.37807
        91.48      3.54106
       91.337       3.7119
      91.1941      3.89096
      91.0511      4.07863
      90.9082      4.27533
      90.7652      4.48149
      90.6223      4.69757
      90.4793      4.92404
      90.3363      5.16139
      90.1934      5.41016
      90.0504      5.67088
      89.9075      5.94413
      89.7645      6.23052
      89.6216      6.53067
      89.4786      6.84523
      89.3357      7.17491
      89.1927      7.52042
      89.0497      7.88253
      88.9068      8.26202
      88.7638      8.65973
      88.6209      9.07654
      88.4779      9.51335
       88.335      9.97113
       88.192      10.4509
      88.0491      10.9536
      87.9061      11.4805
      87.7631      12.0327
      87.6202      12.6113
      87.4772      13.2177
      87.3343      13.8532
      87.1913      14.5191
      87.0484       15.217
      86.9054      15.9483
      86.7625      16.7146
      86.6195      17.5177
      86.4765      18.3593
      86.3336      19.2411
      86.1906      20.1652
      86.0477      21.1336
      85.9047      22.1484
      85.7618      23.2117
      85.6188      24.3259
      85.4759      25.4935
      85.3329      26.7169
        85.19      27.9989
       85.047      29.3422
       84.904      30.7499
      84.7611      32.2248
      84.6181      33.7703
      84.4752      35.3897
      84.3322      37.0865
      84.1893      38.8644
      84.0463      40.7273
      83.9034      42.6793
      83.7604      44.7246
      83.6174      46.8676
      83.4745      49.1129
      83.3315      51.4656
      83.1886      53.9306
      83.0456      56.5133
      82.9027      59.2193
      82.7597      62.0546
      82.6168      65.0252
      82.4738      68.1376
      82.3308      71.3985
      82.1879       74.815
      82.0449      78.3945
       81.902      82.1448
       81.759      86.0739
      81.6161      90.1905
      81.4731      94.5033
      81.3302      99.0218
      81.1872      103.756
      81.0442      108.715
      80.9013      113.911
      80.7583      119.354
      80.6154      125.057
      80.4724      131.032
      80.3295       137.29
      80.1865      143.848
      80.0436      150.717
      79.9006      157.913
      79.7576      165.452
      79.6147       173.35
      79.4717      181.623
      79.3288      190.291
      79.1858       199.37
      79.0429      208.882
      78.8999      218.845
       78.757      229.283
       78.614      240.217
       78.471      251.671
      78.3281      263.669
      78.1851      276.238
      78.0422      289.403
      77.8992      303.195
      77.7563      317.641
      77.6133      332.774
      77.4704      348.625
      77.3274      365.229
      77.1845      382.622
      77.0415       400.84
      76.8985      419.923
      76.7556      439.911
      76.6126      460.848
      76.4697      482.778
      76.3267      505.748
      76.1838      529.808
      76.0408      555.009
      75.8979      581.405
      75.7549      609.052
      75.6119       638.01
       75.469       668.34
       75.326      700.107
      75.1831       733.38
      75.0401      768.228
      74.8972      804.728
      74.7542      842.955
      74.6113      882.993
      74.4683      924.927
      74.3253      968.845
      74.1824      1014.84
      74.0394      1063.02
      73.8965      1113.47
      73.7535      1166.31
      73.6106      1221.65
      73.4676       1279.6
      73.3247       1340.3
      73.1817      1403.87
      73.0387      1470.44
      72.8958      1540.16
      72.7528      1613.17
      72.6099      1689.63
      72.4669      1769.71
       72.324      1853.56
       72.181      1941.38
      72.0381      2033.34
      71.8951      2129.65
      71.7521       2230.5
      71.6092      2336.11
      71.4662      2446.71
      71.3233      2562.52
      71.1803       2683.8
      71.0374       2810.8
      70.8944      2943.78
      70.7515      3083.04
      70.6085      3228.86
      70.4655      3381.56
      70.3226      3541.45
      70.1796      3708.88
      70.0367      3884.19
      69.8937      4067.77
      69.7508      4259.99
      69.6078      4461.26
      69.4649      4672.01
      69.3219      4892.68
       69.179      5123.74
       69.036      5365.67
       68.893      5618.99
      68.7501      5884.22
      68.6071      6161.93
      68.4642       6452.7
      68.3212      6757.14
      68.1783       7075.9
      68.0353      7409.64
      67.8924      7759.07
      67.7494      8124.91
      67.6064      8507.95
      67.4635      8908.98
      67.3205      9328.85
      67.1776      9768.43
      67.0346      10228.7
      66.8917      10710.5
      66.7487      11214.9
      66.6058        11743
      66.4628      12295.9
      66.3198      12874.8
      66.1769      13480.8
      66.0339      14115.2
       65.891      14779.3
       65.748      15474.6
      65.6051      16202.5
      65.4621      16964.5
      65.3192      17762.2
      65.1762      18597.3
      65.0332      19471.5
      64.8903      20386.7
      64.7473      21344.6
      64.6044      22347.5
      64.4614      23397.3
      64.3185      24496.2
      64.1755      25646.6
      64.0326      26850.7
      63.8896      28111.2
      63.7466      29430.7
      63.6037      30811.8
      63.4607      32257.5
      63.3178      33770.9
      63.1748      35354.9
      63.0319      37012.9
      62.8889      38748.5
       62.746      40565.1
       62.603      42466.5
      62.4601      44456.7
      62.3171      46539.9
      62.1741      48720.3
      62.0312      51002.4
      61.8882      53391.1
      61.7453      55891.2
      61.6023      58507.9
      61.4594      61246.7
      61.3164      64113.1
      61.1735      67113.2
      61.0305      70253.2
      60.8875      73539.5
      60.7446      76978.9
      60.6016      80578.6
      60.4587      84345.9
      60.3157      88288.7
      60.1728      92415.1
      60.0298      96733.6
      59.8869       101253
      59.7439       105983
      59.6009       110933
       59.458       116113
       59.315       121534
      59.1721       127207
      59.0291       133144
      58.8862       139357
      58.7432       145859
      58.6003       152663
      58.4573       159783
      58.3143       167234
      58.1714       175030
      58.0284       183189
      57.8855       191727
      57.7425       200661
      57.5996       210009
      57.4566       219791
      57.3137       230028
      57.1707       240738
      57.0277       251946
      56.8848       263673
      56.7418       275944
      56.5989       288784
      56.4559       302218
       56.313       316275
        56.17       330983
      56.0271       346372
      55.8841       362474
      55.7411       379321
      55.5982       396948
      55.4552       415391
      55.3123       434687
      55.1693       454876
      55.0264       475998
      54.8834       498097
      54.7405       521218
      54.5975       545407
      54.4546       570714
      54.3116       597191
      54.1686       624891
      54.0257       653870
      53.8827       684187
      53.7398       715904
      53.5968       749084
      53.4539       783797
      53.3109       820110
       53.168       858099
       53.025       897840
       52.882       939414
      52.7391       982905
      52.5961   1.0284e+06
      52.4532  1.07599e+06
      52.3102  1.12578e+06
      52.1673  1.17785e+06
      52.0243  1.23233e+06
      51.8814  1.28932e+06
      51.7384  1.34892e+06
      51.5954  1.41128e+06
      51.4525   1.4765e+06
      51.3095  1.54472e+06
      51.1666  1.61608e+06
      51.0236  1.69072e+06
      50.8807   1.7688e+06
      50.7377  1.85046e+06
      50.5948  1.93588e+06
      50.4518  2.02523e+06
      50.3088  2.11867e+06
      50.1659  2.21641e+06
      50.0229  2.31864e+06
        49.88  2.42557e+06
       49.737   2.5374e+06
      49.5941  2.65436e+06
      49.4511  2.77669e+06
      49.3082  2.90464e+06
      49.1652  3.03845e+06
      49.0222   3.1784e+06
      48.8793  3.32476e+06
      48.7363  3.47784e+06
      48.5934  3.63792e+06
      48.4504  3.80535e+06
      48.3075  3.98044e+06
      48.1645  4.16356e+06
      48.0216  4.35505e+06
      47.8786  4.55532e+06
      47.7356  4.76475e+06
      47.5927  4.98376e+06
      47.4497   5.2128e+06
      47.3068  5.45231e+06
      47.1638  5.70277e+06
      47.0209  5.96468e+06
      46.8779  6.23857e+06
       46.735  6.52497e+06
       46.592  6.82446e+06
      46.4491  7.13763e+06
      46.3061   7.4651e+06
      46.1631  7.80753e+06
      46.0202  8.16558e+06
      45.8772  8.53998e+06
      45.7343  8.93147e+06
      45.5913  9.34081e+06
      45.4484  9.76882e+06
      45.3054  1.02164e+07
      45.1625  1.06843e+07
      45.0195  1.11735e+07
      44.8765  1.16851e+07
      44.7336    1.222e+07
      44.5906  1.27792e+07
      44.4477  1.33639e+07
      44.3047  1.39752e+07
      44.1618  1.46143e+07
      44.0188  1.52826e+07
      43.8759  1.59812e+07
      43.7329  1.67116e+07
      43.5899  1.74752e+07
       43.447  1.82736e+07
       43.304  1.91082e+07
      43.1611  1.99807e+07
      43.0181  2.08929e+07
      42.8752  2.18466e+07
      42.7322  2.28435e+07
      42.5893  2.38858e+07
      42.4463  2.49753e+07
      42.3033  2.61143e+07
      42.1604  2.73049e+07
      42.0174  2.85496e+07
      41.8745  2.98507e+07
      41.7315  3.12108e+07
      41.5886  3.26325e+07
      41.4456  3.41187e+07
      41.3027  3.56722e+07
      41.1597  3.72961e+07
      41.0167  3.89936e+07
      40.8738  4.07679e+07
      40.7308  4.26225e+07
      40.5879   4.4561e+07
      40.4449  4.65872e+07
       40.302  4.87051e+07
       40.159  5.09188e+07
      40.0161  5.32325e+07
      39.8731  5.56509e+07
      39.7302  5.81785e+07
      39.5872  6.08203e+07
      39.4442  6.35814e+07
      39.3013  6.64673e+07
      39.1583  6.94834e+07
      39.0154  7.26356e+07
      38.8724  7.59301e+07
      38.7295  7.93732e+07
      38.5865  8.29716e+07
      38.4436  8.67322e+07
      38.3006  9.06624e+07
      38.1576  9.47697e+07
      38.0147   9.9062e+07
      37.8717  1.03548e+08
      37.7288  1.08235e+08
      37.5858  1.13134e+08
      37.4429  1.18254e+08
      37.2999  1.23603e+08
       37.157  1.29194e+08
       37.014  1.35035e+08
       36.871   1.4114e+08
      36.7281  1.47519e+08
      36.5851  1.54184e+08
      36.4422  1.61149e+08
      36.2992  1.68427e+08
      36.1563  1.76032e+08
      36.0133  1.83978e+08
      35.8704  1.92281e+08
      35.7274  2.00957e+08
      35.5844  2.10022e+08
      35.4415  2.19493e+08
      35.2985  2.29389e+08
      35.1556  2.39729e+08
      35.0126  2.50532e+08
      34.8697  2.61819e+08
      34.7267  2.73612e+08
      34.5838  2.85933e+08
      34.4408  2.98805e+08
      34.2978  3.12254e+08
      34.1549  3.26304e+08
      34.0119  3.40983e+08
       33.869  3.56319e+08
       33.726   3.7234e+08
      33.5831  3.89077e+08
      33.4401  4.06562e+08
      33.2972  4.24829e+08
      33.1542  4.43911e+08
      33.0112  4.63846e+08
      32.8683   4.8467e+08
      32.7253  5.06423e+08
      32.5824  5.29147e+08
      32.4394  5.52885e+08
      32.2965  5.77681e+08
      32.1535  6.03583e+08
      32.0106  6.30639e+08
      31.8676  6.58901e+08
      31.7247  6.88421e+08
      31.5817  7.19256e+08
      31.4387  7.51464e+08
      31.2958  7.85105e+08
      31.1528  8.20243e+08
      31.0099  8.56945e+08
      30.8669  8.95278e+08
       30.724  9.35315e+08
       30.581  9.77132e+08
      30.4381  1.02081e+09
      30.2951  1.06642e+09
      30.1521  1.11406e+09
      30.0092  1.16382e+09
      29.8662  1.21578e+09
      29.7233  1.27005e+09
      29.5803  1.32673e+09
      29.4374  1.38592e+09
      29.2944  1.44773e+09
      29.1515  1.51229e+09
      29.0085   1.5797e+09
      28.8655   1.6501e+09
      28.7226  1.72362e+09
      28.5796  1.80039e+09
      28.4367  1.88056e+09
      28.2937  1.96428e+09
      28.1508   2.0517e+09
      28.0078  2.14299e+09
      27.8649  2.23831e+09
      27.7219  2.33784e+09
      27.5789  2.44177e+09
       27.436  2.55029e+09
       27.293   2.6636e+09
      27.1501  2.78192e+09
      27.0071  2.90545e+09
      26.8642  3.03444e+09
      26.7212  3.16911e+09
      26.5783  3.30972e+09
      26.4353  3.45653e+09
      26.2923  3.60981e+09
      26.1494  3.76983e+09
      26.0064  3.93691e+09
      25.8635  4.11134e+09
      25.7205  4.29345e+09
      25.5776  4.48356e+09
      25.4346  4.68204e+09
      25.2917  4.88925e+09
      25.1487  5.10557e+09
      25.0057  5.33139e+09
      24.8628  5.56713e+09
      24.7198  5.81322e+09
      24.5769  6.07011e+09
      24.4339  6.33828e+09
       24.291  6.61822e+09
       24.148  6.91044e+09
      24.0051  7.21546e+09
      23.8621  7.53386e+09
      23.7192  7.86621e+09
      23.5762  8.21312e+09
      23.4332  8.57522e+09
      23.2903  8.95318e+09
      23.1473  9.34767e+09
      23.0044  9.75943e+09
      22.8614  1.01892e+10
      22.7185  1.06377e+10
      22.5755  1.11059e+10
      22.4326  1.15945e+10
      22.2896  1.21045e+10
      22.1466  1.26367e+10
      22.0037  1.31922e+10
      21.8607  1.37719e+10
      21.7178  1.43769e+10
      21.5748  1.50082e+10
      21.4319  1.56671e+10
      21.2889  1.63548e+10
       21.146  1.70723e+10
       21.003  1.78212e+10
        20.86  1.86026e+10
      20.7171   1.9418e+10
      20.5741  2.02689e+10
      20.4312  2.11569e+10
      20.2882  2.20834e+10
      20.1453  2.30502e+10
      20.0023  2.40591e+10
      19.8594  2.51117e+10
      19.7164  2.62101e+10
      19.5734  2.73561e+10
      19.4305  2.85519e+10
      19.2875  2.97995e+10
      19.1446  3.11013e+10
      19.0016  3.24595e+10
      18.8587  3.38765e+10
      18.7157   3.5355e+10
      18.5728  3.68974e+10
      18.4298  3.85066e+10
      18.2868  4.01855e+10
      18.1439   4.1937e+10
      18.0009  4.37643e+10
       17.858  4.56705e+10
       17.715  4.76592e+10
      17.5721  4.97337e+10
      17.4291  5.18978e+10
      17.2862  5.41554e+10
      17.1432  5.65104e+10
      17.0002   5.8967e+10
      16.8573  6.15295e+10
      16.7143  6.42025e+10
      16.5714  6.69907e+10
      16.4284   6.9899e+10
      16.2855  7.29325e+10
      16.1425  7.60966e+10
      15.9996  7.93969e+10
      15.8566  8.28392e+10
      15.7137  8.64295e+10
      15.5707  9.01741e+10
      15.4277  9.40797e+10
      15.2848   9.8153e+10
      15.1418  1.02401e+11
      14.9989  1.06832e+11
      14.8559  1.11452e+11
       14.713  1.16271e+11
        14.57  1.21297e+11
      14.4271  1.26538e+11
      14.2841  1.32003e+11
      14.1411  1.37703e+11
      13.9982  1.43646e+11
      13.8552  1.49844e+11
      13.7123  1.56307e+11
      13.5693  1.63047e+11
      13.4264  1.70074e+11
      13.2834  1.77402e+11
      13.1405  1.85043e+11
      12.9975  1.93011e+11
      12.8545  2.01318e+11
      12.7116   2.0998e+11
      12.5686  2.19011e+11
      12.4257  2.28427e+11
      12.2827  2.38244e+11
      12.1398   2.4848e+11
      11.9968  2.59152e+11
      11.8539  2.70278e+11
      11.7109  2.81877e+11
      11.5679   2.9397e+11
