Temperature = 1663.84K
THERMAL DISTRIBUTIONS:
  E, kcal/mol           W1
      145.743     0.110674
        145.6     0.114817
      145.457     0.119116
      145.314     0.123574
      145.171       0.1282
      145.028     0.132998
      144.885     0.137975
      144.742     0.143137
      144.599     0.148493
      144.456     0.154048
      144.313      0.15981
       144.17     0.165788
      144.028     0.171988
      143.885      0.17842
      143.742     0.185092
      143.599     0.192012
      143.456      0.19919
      143.313     0.206636
       143.17      0.21436
      143.027     0.222371
      142.884     0.230681
      142.741     0.239301
      142.598     0.248242
      142.455     0.257516
      142.312     0.267135
      142.169     0.277113
      142.026     0.287463
      141.883     0.298198
       141.74     0.309332
      141.597     0.320882
      141.454     0.332861
      141.311     0.345286
      141.168     0.358174
      141.025     0.371542
      140.882     0.385407
       140.74     0.399788
      140.597     0.414704
      140.454     0.430175
      140.311     0.446221
      140.168     0.462864
      140.025     0.480127
      139.882     0.498031
      139.739     0.516601
      139.596     0.535862
      139.453     0.555838
       139.31     0.576557
      139.167     0.598047
      139.024     0.620335
      138.881     0.643451
      138.738     0.667426
      138.595     0.692292
      138.452     0.718081
      138.309     0.744829
      138.166      0.77257
      138.023     0.801341
       137.88     0.831181
      137.737     0.862128
      137.595     0.894225
      137.452     0.927512
      137.309     0.962036
      137.166     0.997841
      137.023      1.03497
       136.88      1.07349
      136.737      1.11343
      136.594      1.15485
      136.451       1.1978
      136.308      1.24236
      136.165      1.28856
      136.022      1.33648
      135.879      1.38617
      135.736      1.43771
      135.593      1.49115
       135.45      1.54658
      135.307      1.60406
      135.164      1.66367
      135.021      1.72549
      134.878       1.7896
      134.735      1.85608
      134.592      1.92503
       134.45      1.99653
      134.307      2.07068
      134.164      2.14758
      134.021      2.22732
      133.878      2.31001
      133.735      2.39577
      133.592      2.48469
      133.449      2.57691
      133.306      2.67254
      133.163      2.77171
       133.02      2.87455
      132.877      2.98119
      132.734      3.09178
      132.591      3.20646
      132.448      3.32537
      132.305      3.44869
      132.162      3.57656
      132.019      3.70916
      131.876      3.84666
      131.733      3.98924
       131.59      4.13709
      131.447       4.2904
      131.304      4.44938
      131.162      4.61423
      131.019      4.78517
      130.876      4.96242
      130.733      5.14621
       130.59       5.3368
      130.447      5.53442
      130.304      5.73933
      130.161      5.95181
      130.018      6.17213
      129.875      6.40057
      129.732      6.63745
      129.589      6.88307
      129.446      7.13775
      129.303      7.40182
       129.16      7.67563
      129.017      7.95954
      128.874      8.25391
      128.731      8.55914
      128.588      8.87562
      128.445      9.20377
      128.302        9.544
      128.159      9.89678
      128.017      10.2626
      127.874      10.6418
      127.731       11.035
      127.588      11.4427
      127.445      11.8654
      127.302      12.3037
      127.159      12.7582
      127.016      13.2293
      126.873      13.7178
       126.73      14.2243
      126.587      14.7494
      126.444      15.2938
      126.301      15.8583
      126.158      16.4435
      126.015      17.0503
      125.872      17.6794
      125.729      18.3316
      125.586      19.0078
      125.443      19.7088
        125.3      20.4357
      125.157      21.1892
      125.014      21.9705
      124.871      22.7804
      124.729      23.6201
      124.586      24.4907
      124.443      25.3932
        124.3      26.3289
      124.157       27.299
      124.014      28.3047
      123.871      29.3473
      123.728      30.4282
      123.585      31.5487
      123.442      32.7104
      123.299      33.9148
      123.156      35.1633
      123.013      36.4576
       122.87      37.7994
      122.727      39.1905
      122.584      40.6325
      122.441      42.1275
      122.298      43.6772
      122.155      45.2838
      122.012      46.9492
      121.869      48.6758
      121.726      50.4655
      121.584      52.3209
      121.441      54.2443
      121.298      56.2381
      121.155       58.305
      121.012      60.4475
      120.869      62.6685
      120.726      64.9709
      120.583      67.3575
       120.44      69.8315
      120.297      72.3961
      120.154      75.0546
      120.011      77.8103
      119.868      80.6668
      119.725      83.6279
      119.582      86.6973
      119.439      89.8789
      119.296      93.1769
      119.153      96.5955
       119.01      100.139
      118.867      103.812
      118.724       107.62
      118.581      111.566
      118.439      115.657
      118.296      119.897
      118.153      124.292
       118.01      128.848
      117.867       133.57
      117.724      138.464
      117.581      143.538
      117.438      148.796
      117.295      154.247
      117.152      159.896
      117.009      165.751
      116.866      171.821
      116.723      178.111
       116.58      184.631
      116.437      191.389
      116.294      198.394
      116.151      205.654
      116.008      213.178
      115.865      220.977
      115.722       229.06
      115.579      237.438
      115.436      246.121
      115.293      255.121
      115.151      264.448
      115.008      274.115
      114.865      284.135
      114.722      294.519
      114.579      305.281
      114.436      316.435
      114.293      327.995
       114.15      339.976
      114.007      352.393
      113.864      365.262
      113.721      378.599
      113.578      392.421
      113.435      406.747
      113.292      421.593
      113.149      436.978
      113.006      452.924
      112.863      469.449
       112.72      486.574
      112.577      504.323
      112.434      522.716
      112.291      541.777
      112.148      561.531
      112.006      582.002
      111.863      603.217
       111.72      625.203
      111.577      647.986
      111.434      671.597
      111.291      696.065
      111.148      721.421
      111.005      747.697
      110.862      774.927
      110.719      803.144
      110.576      832.385
      110.433      862.687
       110.29      894.088
      110.147      926.627
      110.004      960.345
      109.861      995.286
      109.718      1031.49
      109.575      1069.01
      109.432      1107.89
      109.289      1148.18
      109.146      1189.93
      109.003      1233.19
       108.86      1278.01
      108.718      1324.46
      108.575      1372.59
      108.432      1422.46
      108.289      1474.14
      108.146      1527.69
      108.003      1583.17
       107.86      1640.67
      107.717      1700.24
      107.574      1761.96
      107.431      1825.92
      107.288       1892.2
      107.145      1960.86
      107.002      2032.01
      106.859      2105.73
      106.716      2182.12
      106.573      2261.26
       106.43      2343.27
      106.287      2428.23
      106.144      2516.27
      106.001      2607.48
      105.858      2701.99
      105.715       2799.9
      105.573      2901.36
       105.43      3006.47
      105.287      3115.38
      105.144      3228.21
      105.001      3345.12
      104.858      3466.24
      104.715      3591.73
      104.572      3721.75
      104.429      3856.45
      104.286      3996.01
      104.143      4140.59
          104      4290.39
      103.857      4445.59
      103.714      4606.37
      103.571      4772.95
      103.428      4945.53
      103.285      5124.32
      103.142      5309.55
      102.999      5501.44
      102.856      5700.25
      102.713       5906.2
       102.57      6119.57
      102.428      6340.62
      102.285      6569.61
      102.142      6806.84
      101.999       7052.6
      101.856       7307.2
      101.713      7570.95
       101.57      7844.18
      101.427      8127.23
      101.284      8420.45
      101.141      8724.21
      100.998      9038.87
      100.855      9364.84
      100.712      9702.51
      100.569      10052.3
      100.426      10414.7
      100.283        10790
       100.14      11178.9
      99.9973      11581.6
      99.8543      11998.9
      99.7114      12431.1
      99.5684      12878.8
      99.4254      13342.5
      99.2825      13822.9
      99.1395      14320.5
      98.9966        14836
      98.8536      15369.9
      98.7107      15922.9
      98.5677      16495.8
      98.4248      17089.2
      98.2818      17703.8
      98.1388      18340.5
      97.9959      18999.9
      97.8529      19682.9
        97.71      20390.4
       97.567      21123.2
      97.4241      21882.3
      97.2811      22668.5
      97.1382      23482.8
      96.9952      24326.2
      96.8522      25199.8
      96.7093      26104.6
      96.5663      27041.8
      96.4234      28012.5
      96.2804      29017.8
      96.1375      30059.1
      95.9945      31137.5
      95.8516      32254.5
      95.7086      33411.4
      95.5656      34609.6
      95.4227      35850.6
      95.2797      37135.8
      95.1368        38467
      94.9938      39845.6
      94.8509      41273.4
      94.7079      42752.2
       94.565      44283.6
       94.422      45869.7
      94.2791      47512.4
      94.1361      49213.6
      93.9931      50975.4
      93.8502      52800.1
      93.7072      54689.7
      93.5643      56646.7
      93.4213      58673.3
      93.2784      60772.2
      93.1354      62945.7
      92.9925      65196.7
      92.8495      67527.7
      92.7065      69941.8
      92.5636      72441.7
      92.4206      75030.5
      92.2777      77711.5
      92.1347      80487.8
      91.9918      83362.8
      91.8488        86340
      91.7059      89423.1
      91.5629      92615.7
      91.4199      95921.8
       91.277      99345.4
       91.134       102891
      90.9911       106562
      90.8481       110363
      90.7052       114299
      90.5622       118376
      90.4193       122596
      90.2763       126967
      90.1333       131493
      89.9904       136179
      89.8474       141031
      89.7045       146056
      89.5615       151258
      89.4186       156645
      89.2756       162223
      89.1327       167999
      88.9897       173979
      88.8467       180171
      88.7038       186583
      88.5608       193221
      88.4179       200095
      88.2749       207211
       88.132       214580
       87.989       222210
      87.8461       230109
      87.7031       238288
      87.5602       246756
      87.4172       255523
      87.2742       264601
      87.1313       273999
      86.9883       283730
      86.8454       293804
      86.7024       304235
      86.5595       315033
      86.4165       326214
      86.2736       337788
      86.1306       349772
      85.9876       362179
      85.8447       375023
      85.7017       388321
      85.5588       402088
      85.4158       416340
      85.2729       431095
      85.1299       446370
       84.987       462184
       84.844       478555
       84.701       495503
      84.5581       513049
      84.4151       531212
      84.2722       550015
      84.1292       569480
      83.9863       589631
      83.8433       610490
      83.7004       632084
      83.5574       654438
      83.4144       677579
      83.2715       701533
      83.1285       726329
      82.9856       751998
      82.8426       778569
      82.6997       806074
      82.5567       834545
      82.4138       864017
      82.2708       894525
      82.1278       926103
      81.9849       958791
      81.8419       992626
       81.699  1.02765e+06
       81.556   1.0639e+06
      81.4131  1.10143e+06
      81.2701  1.14027e+06
      81.1272  1.18047e+06
      80.9842  1.22208e+06
      80.8412  1.26515e+06
      80.6983  1.30973e+06
      80.5553  1.35588e+06
      80.4124  1.40364e+06
      80.2694  1.45307e+06
      80.1265  1.50424e+06
      79.9835   1.5572e+06
      79.8406  1.61201e+06
      79.6976  1.66874e+06
      79.5547  1.72746e+06
      79.4117  1.78823e+06
      79.2687  1.85113e+06
      79.1258  1.91623e+06
      78.9828   1.9836e+06
      78.8399  2.05333e+06
      78.6969   2.1255e+06
       78.554  2.20019e+06
       78.411  2.27749e+06
      78.2681  2.35749e+06
      78.1251  2.44029e+06
      77.9821  2.52598e+06
      77.8392  2.61466e+06
      77.6962  2.70644e+06
      77.5533  2.80141e+06
      77.4103  2.89971e+06
      77.2674  3.00143e+06
      77.1244   3.1067e+06
      76.9815  3.21565e+06
      76.8385  3.32839e+06
      76.6955  3.44506e+06
      76.5526   3.5658e+06
      76.4096  3.69075e+06
      76.2667  3.82005e+06
      76.1237  3.95386e+06
      75.9808  4.09232e+06
      75.8378  4.23561e+06
      75.6949  4.38388e+06
      75.5519  4.53731e+06
      75.4089  4.69609e+06
       75.266  4.86039e+06
       75.123   5.0304e+06
      74.9801  5.20633e+06
      74.8371  5.38837e+06
      74.6942  5.57674e+06
      74.5512  5.77166e+06
      74.4083  5.97335e+06
      74.2653  6.18205e+06
      74.1223  6.39799e+06
      73.9794  6.62144e+06
      73.8364  6.85264e+06
      73.6935  7.09187e+06
      73.5505   7.3394e+06
      73.4076  7.59552e+06
      73.2646  7.86053e+06
      73.1217  8.13472e+06
      72.9787  8.41843e+06
      72.8357  8.71197e+06
      72.6928  9.01568e+06
      72.5498  9.32992e+06
      72.4069  9.65505e+06
      72.2639  9.99144e+06
       72.121  1.03395e+07
       71.978  1.06996e+07
      71.8351  1.10721e+07
      71.6921  1.14576e+07
      71.5492  1.18563e+07
      71.4062  1.22689e+07
      71.2632  1.26958e+07
      71.1203  1.31374e+07
      70.9773  1.35943e+07
      70.8344  1.40669e+07
      70.6914  1.45559e+07
      70.5485  1.50618e+07
      70.4055  1.55852e+07
      70.2626  1.61266e+07
      70.1196  1.66868e+07
      69.9766  1.72663e+07
      69.8337  1.78657e+07
      69.6907  1.84859e+07
      69.5478  1.91274e+07
      69.4048  1.97911e+07
      69.2619  2.04777e+07
      69.1189  2.11879e+07
       68.976  2.19226e+07
       68.833  2.26826e+07
        68.69  2.34689e+07
      68.5471  2.42821e+07
      68.4041  2.51234e+07
      68.2612  2.59937e+07
      68.1182  2.68939e+07
      67.9753  2.78251e+07
      67.8323  2.87883e+07
      67.6894  2.97847e+07
      67.5464  3.08153e+07
      67.4034  3.18813e+07
      67.2605   3.2984e+07
      67.1175  3.41246e+07
      66.9746  3.53044e+07
      66.8316  3.65247e+07
      66.6887  3.77869e+07
      66.5457  3.90924e+07
      66.4028  4.04428e+07
      66.2598  4.18395e+07
      66.1168  4.32841e+07
      65.9739  4.47783e+07
      65.8309  4.63237e+07
       65.688  4.79221e+07
       65.545  4.95753e+07
      65.4021  5.12851e+07
      65.2591  5.30536e+07
      65.1162  5.48826e+07
      64.9732  5.67742e+07
      64.8302  5.87306e+07
      64.6873   6.0754e+07
      64.5443  6.28466e+07
      64.4014  6.50108e+07
      64.2584  6.72491e+07
      64.1155  6.95639e+07
      63.9725  7.19578e+07
      63.8296  7.44336e+07
      63.6866  7.69939e+07
      63.5437  7.96418e+07
      63.4007  8.23801e+07
      63.2577  8.52119e+07
      63.1148  8.81403e+07
      62.9718  9.11688e+07
      62.8289  9.43005e+07
      62.6859  9.75391e+07
       62.543  1.00888e+08
         62.4  1.04352e+08
      62.2571  1.07933e+08
      62.1141  1.11636e+08
      61.9711  1.15466e+08
      61.8282  1.19426e+08
      61.6852  1.23521e+08
      61.5423  1.27755e+08
      61.3993  1.32134e+08
      61.2564  1.36661e+08
      61.1134  1.41343e+08
      60.9705  1.46184e+08
      60.8275  1.51189e+08
      60.6845  1.56365e+08
      60.5416  1.61716e+08
      60.3986   1.6725e+08
      60.2557  1.72971e+08
      60.1127  1.78887e+08
      59.9698  1.85004e+08
      59.8268  1.91328e+08
      59.6839  1.97867e+08
      59.5409  2.04628e+08
      59.3979  2.11618e+08
       59.255  2.18845e+08
       59.112  2.26317e+08
      58.9691  2.34043e+08
      58.8261   2.4203e+08
      58.6832  2.50288e+08
      58.5402  2.58826e+08
      58.3973  2.67653e+08
      58.2543  2.76778e+08
      58.1113  2.86213e+08
      57.9684  2.95966e+08
      57.8254   3.0605e+08
      57.6825  3.16475e+08
      57.5395  3.27252e+08
      57.3966  3.38393e+08
      57.2536  3.49911e+08
      57.1107  3.61818e+08
      56.9677  3.74128e+08
      56.8248  3.86853e+08
      56.6818  4.00007e+08
      56.5388  4.13605e+08
      56.3959  4.27663e+08
      56.2529  4.42194e+08
        56.11  4.57215e+08
       55.967  4.72743e+08
      55.8241  4.88794e+08
      55.6811  5.05386e+08
      55.5382  5.22537e+08
      55.3952  5.40266e+08
      55.2522  5.58591e+08
      55.1093  5.77533e+08
      54.9663  5.97113e+08
      54.8234  6.17351e+08
      54.6804   6.3827e+08
      54.5375  6.59893e+08
      54.3945  6.82242e+08
      54.2516  7.05342e+08
      54.1086  7.29219e+08
      53.9656  7.53897e+08
      53.8227  7.79404e+08
      53.6797  8.05767e+08
      53.5368  8.33015e+08
      53.3938  8.61177e+08
      53.2509  8.90283e+08
      53.1079  9.20366e+08
       52.965  9.51457e+08
       52.822   9.8359e+08
       52.679   1.0168e+09
      52.5361  1.05112e+09
      52.3931  1.08659e+09
      52.2502  1.12325e+09
      52.1072  1.16114e+09
      51.9643  1.20029e+09
      51.8213  1.24075e+09
      51.6784  1.28257e+09
      51.5354  1.32578e+09
      51.3924  1.37044e+09
      51.2495  1.41659e+09
      51.1065  1.46428e+09
      50.9636  1.51356e+09
      50.8206  1.56449e+09
      50.6777  1.61712e+09
      50.5347  1.67151e+09
      50.3918   1.7277e+09
      50.2488  1.78578e+09
      50.1058  1.84578e+09
      49.9629  1.90779e+09
      49.8199  1.97186e+09
       49.677  2.03807e+09
       49.534  2.10648e+09
      49.3911  2.17717e+09
      49.2481  2.25021e+09
      49.1052  2.32568e+09
      48.9622  2.40366e+09
      48.8193  2.48424e+09
      48.6763  2.56749e+09
      48.5333  2.65351e+09
      48.3904  2.74238e+09
      48.2474  2.83421e+09
      48.1045  2.92908e+09
      47.9615  3.02711e+09
      47.8186  3.12838e+09
      47.6756  3.23302e+09
      47.5327  3.34112e+09
      47.3897  3.45281e+09
      47.2467   3.5682e+09
      47.1038  3.68741e+09
      46.9608  3.81057e+09
      46.8179  3.93781e+09
      46.6749  4.06926e+09
       46.532  4.20505e+09
       46.389  4.34534e+09
      46.2461  4.49027e+09
      46.1031  4.63999e+09
      45.9601  4.79466e+09
      45.8172  4.95444e+09
      45.6742   5.1195e+09
      45.5313     5.29e+09
      45.3883  5.46614e+09
      45.2454  5.64808e+09
      45.1024  5.83603e+09
      44.9595  6.03017e+09
      44.8165  6.23072e+09
      44.6735  6.43788e+09
      44.5306  6.65186e+09
      44.3876  6.87288e+09
      44.2447  7.10119e+09
      44.1017  7.33701e+09
      43.9588  7.58059e+09
      43.8158  7.83218e+09
      43.6729  8.09204e+09
      43.5299  8.36045e+09
      43.3869  8.63768e+09
       43.244  8.92402e+09
       43.101  9.21976e+09
      42.9581  9.52521e+09
      42.8151  9.84068e+09
      42.6722  1.01665e+10
      42.5292   1.0503e+10
      42.3863  1.08506e+10
      42.2433  1.12095e+10
      42.1003  1.15802e+10
      41.9574  1.19631e+10
      41.8144  1.23584e+10
      41.6715  1.27668e+10
      41.5285  1.31884e+10
      41.3856  1.36239e+10
      41.2426  1.40736e+10
      41.0997  1.45381e+10
      40.9567  1.50177e+10
      40.8138   1.5513e+10
      40.6708  1.60244e+10
      40.5278  1.65526e+10
      40.3849  1.70979e+10
