Temperature = 1650.82K
THERMAL DISTRIBUTIONS:
  E, kcal/mol           W1
      144.708     0.102067
      144.565     0.105921
      144.422     0.109921
      144.279     0.114072
      144.136     0.118379
      143.993     0.122848
       143.85     0.127486
      143.707     0.132298
      143.564     0.137291
      143.421     0.142472
      143.278     0.147848
      143.135     0.153426
      142.993     0.159214
       142.85      0.16522
      142.707     0.171452
      142.564     0.177919
      142.421     0.184629
      142.278     0.191591
      142.135     0.198814
      141.992      0.20631
      141.849     0.214087
      141.706     0.222157
      141.563     0.230529
       141.42     0.239217
      141.277     0.248231
      141.134     0.257584
      140.991     0.267288
      140.848     0.277357
      140.705     0.287804
      140.562     0.298644
      140.419      0.30989
      140.276     0.321559
      140.133     0.333667
       139.99     0.346228
      139.847     0.359262
      139.705     0.372784
      139.562     0.386815
      139.419     0.401371
      139.276     0.416474
      139.133     0.432144
       138.99     0.448402
      138.847     0.465269
      138.704     0.482769
      138.561     0.500926
      138.418     0.519763
      138.275     0.539307
      138.132     0.559584
      137.989     0.580621
      137.846     0.602446
      137.703      0.62509
       137.56     0.648582
      137.417     0.672955
      137.274     0.698241
      137.131     0.724474
      136.988      0.75169
      136.845     0.779926
      136.702     0.809219
       136.56     0.839609
      136.417     0.871137
      136.274     0.903846
      136.131     0.937779
      135.988     0.972982
      135.845       1.0095
      135.702      1.04739
      135.559       1.0867
      135.416      1.12747
      135.273      1.16978
       135.13      1.21366
      134.987      1.25919
      134.844      1.30642
      134.701      1.35541
      134.558      1.40624
      134.415      1.45897
      134.272      1.51367
      134.129      1.57041
      133.986      1.62927
      133.843      1.69034
        133.7      1.75369
      133.557       1.8194
      133.415      1.88757
      133.272      1.95828
      133.129      2.03164
      132.986      2.10774
      132.843      2.18667
        132.7      2.26856
      132.557       2.3535
      132.414      2.44161
      132.271      2.53302
      132.128      2.62783
      131.985      2.72618
      131.842      2.82821
      131.699      2.93404
      131.556      3.04381
      131.413      3.15769
       131.27       3.2758
      131.127      3.39833
      130.984      3.52542
      130.841      3.65725
      130.698        3.794
      130.555      3.93584
      130.412      4.08298
      130.269      4.23559
      130.127      4.39389
      129.984      4.55809
      129.841      4.72841
      129.698      4.90507
      129.555      5.08831
      129.412      5.27838
      129.269      5.47552
      129.126         5.68
      128.983       5.8921
       128.84      6.11209
      128.697      6.34027
      128.554      6.57694
      128.411      6.82242
      128.268      7.07704
      128.125      7.34112
      127.982      7.61503
      127.839      7.89913
      127.696      8.19379
      127.553      8.49941
       127.41       8.8164
      127.267      9.14517
      127.124      9.48616
      126.982      9.83982
      126.839      10.2066
      126.696      10.5871
      126.553      10.9816
       126.41      11.3909
      126.267      11.8153
      126.124      12.2555
      125.981      12.7121
      125.838      13.1856
      125.695      13.6766
      125.552       14.186
      125.409      14.7142
      125.266       15.262
      125.123      15.8302
       124.98      16.4194
      124.837      17.0305
      124.694      17.6643
      124.551      18.3215
      124.408      19.0032
      124.265      19.7101
      124.122      20.4433
      123.979      21.2036
      123.836      21.9921
      123.694      22.8099
      123.551      23.6579
      123.408      24.5374
      123.265      25.4495
      123.122      26.3954
      122.979      27.3763
      122.836      28.3935
      122.693      29.4484
       122.55      30.5424
      122.407      31.6768
      122.264      32.8533
      122.121      34.0733
      121.978      35.3385
      121.835      36.6505
      121.692      38.0111
      121.549      39.4219
      121.406       40.885
      121.263      42.4022
       121.12      43.9755
      120.977       45.607
      120.834      47.2989
      120.691      49.0532
      120.549      50.8724
      120.406      52.7589
      120.263      54.7151
       120.12      56.7436
      119.977       58.847
      119.834      61.0281
      119.691      63.2898
      119.548       65.635
      119.405      68.0669
      119.262      70.5885
      119.119      73.2032
      118.976      75.9145
      118.833      78.7258
       118.69      81.6409
      118.547      84.6635
      118.404      87.7977
      118.261      91.0475
      118.118      94.4171
      117.975      97.9111
      117.832      101.534
      117.689       105.29
      117.546      109.185
      117.404      113.224
      117.261      117.411
      117.118      121.753
      116.975      126.254
      116.832      130.922
      116.689      135.761
      116.546      140.779
      116.403      145.981
       116.26      151.375
      116.117      156.968
      115.974      162.766
      115.831      168.779
      115.688      175.012
      115.545      181.475
      115.402      188.175
      115.259      195.122
      115.116      202.325
      114.973      209.792
       114.83      217.534
      114.687      225.561
      114.544      233.883
      114.401      242.511
      114.258      251.456
      114.116       260.73
      113.973      270.344
       113.83      280.312
      113.687      290.646
      113.544       301.36
      113.401      312.467
      113.258      323.982
      113.115       335.92
      112.972      348.296
      112.829      361.126
      112.686      374.427
      112.543      388.217
        112.4      402.512
      112.257      417.332
      112.114      432.696
      111.971      448.623
      111.828      465.134
      111.685      482.251
      111.542      499.995
      111.399      518.389
      111.256      537.458
      111.113      557.226
      110.971      577.718
      110.828      598.961
      110.685      620.982
      110.542       643.81
      110.399      667.473
      110.256      692.004
      110.113      717.432
       109.97      743.791
      109.827      771.115
      109.684      799.439
      109.541        828.8
      109.398      859.234
      109.255      890.783
      109.112      923.485
      108.969      957.383
      108.826       992.52
      108.683      1028.94
       108.54       1066.7
      108.397      1105.83
      108.254      1146.39
      108.111      1188.44
      107.968      1232.02
      107.825       1277.2
      107.683      1324.02
       107.54      1372.56
      107.397      1422.86
      107.254      1475.01
      107.111      1529.06
      106.968      1585.08
      106.825      1643.14
      106.682      1703.32
      106.539       1765.7
      106.396      1830.36
      106.253      1897.37
       106.11      1966.83
      105.967      2038.82
      105.824      2113.43
      105.681      2190.76
      105.538      2270.92
      105.395      2353.99
      105.252      2440.09
      105.109      2529.33
      104.966      2621.81
      104.823      2717.67
       104.68      2817.02
      104.538      2919.98
      104.395      3026.69
      104.252      3137.29
      104.109      3251.91
      103.966      3370.71
      103.823      3493.82
       103.68      3621.42
      103.537      3753.65
      103.394      3890.69
      103.251      4032.72
      103.108      4179.91
      102.965      4332.45
      102.822      4490.54
      102.679      4654.37
      102.536      4824.15
      102.393       5000.1
       102.25      5182.45
      102.107      5371.41
      101.964      5567.24
      101.821      5770.18
      101.678      5980.48
      101.535      6198.42
      101.393      6424.27
       101.25      6658.31
      101.107      6900.84
      100.964      7152.17
      100.821      7412.62
      100.678      7682.51
      100.535      7962.19
      100.392         8252
      100.249      8552.32
      100.106      8863.53
       99.963      9186.01
        99.82      9520.18
       99.677      9866.45
      99.5341      10225.3
      99.3911      10597.1
      99.2482      10982.3
      99.1052      11381.6
      98.9623      11795.2
      98.8193      12223.9
      98.6764        12668
      98.5334      13128.2
      98.3904      13605.1
      98.2475      14099.2
      98.1045      14611.2
      97.9616      15141.7
      97.8186      15691.4
      97.6757      16260.9
      97.5327        16851
      97.3898      17462.5
      97.2468        18096
      97.1038      18752.4
      96.9609      19432.6
      96.8179      20137.3
       96.675      20867.4
       96.532      21623.9
      96.3891      22407.7
      96.2461      23219.8
      96.1032      24061.2
      95.9602      24932.9
      95.8173      25836.1
      95.6743      26771.9
      95.5313      27741.4
      95.3884      28745.9
      95.2454      29786.5
      95.1025      30864.7
      94.9595      31981.8
      94.8166      33139.1
      94.6736        34338
      94.5307      35580.2
      94.3877      36867.1
      94.2447      38200.3
      94.1018      39581.5
      93.9588      41012.5
      93.8159      42494.9
      93.6729      44030.7
        93.53      45621.8
       93.387        47270
      93.2441      48977.6
      93.1011      50746.6
      92.9581      52579.1
      92.8152      54477.6
      92.6722      56444.2
      92.5293      58481.6
      92.3863      60592.1
      92.2434      62778.5
      92.1004      65043.4
      91.9575      67389.7
      91.8145      69820.1
      91.6715      72337.9
      91.5286        74946
      91.3856      77647.7
      91.2427      80446.3
      91.0997      83345.4
      90.9568      86348.4
      90.8138      89459.2
      90.6709      92681.5
      90.5279      96019.3
      90.3849      99476.7
       90.242       103058
       90.099       106768
      89.9561       110610
      89.8131       114591
      89.6702       118713
      89.5272       122984
      89.3843       127407
      89.2413       131989
      89.0983       136734
      88.9554       141650
      88.8124       146741
      88.6695       152015
      88.5265       157477
      88.3836       163134
      88.2406       168994
      88.0977       175063
      87.9547       181349
      87.8118       187859
      87.6688       194603
      87.5258       201587
      87.3829       208820
      87.2399       216312
       87.097       224072
       86.954       232108
      86.8111       240431
      86.6681       249051
      86.5252       257979
      86.3822       267225
      86.2392       276801
      86.0963       286718
      85.9533       296989
      85.8104       307626
      85.6674       318642
      85.5245       330051
      85.3815       341866
      85.2386       354102
      85.0956       366773
      84.9526       379896
      84.8097       393486
      84.6667       407560
      84.5238       422135
      84.3808       437228
      84.2379       452858
      84.0949       469044
       83.952       485806
       83.809       503163
       83.666       521138
      83.5231       539751
      83.3801       559026
      83.2372       578986
      83.0942       599655
      82.9513       621057
      82.8083       643220
      82.6654       666170
      82.5224       689934
      82.3794       714542
      82.2365       740022
      82.0935       766407
      81.9506       793727
      81.8076       822017
      81.6647       851309
      81.5217       881640
      81.3788       913046
      81.2358       945564
      81.0929       979235
      80.9499   1.0141e+06
      80.8069   1.0502e+06
       80.664  1.08757e+06
       80.521  1.12627e+06
      80.3781  1.16634e+06
      80.2351  1.20783e+06
      80.0922  1.25078e+06
      79.9492  1.29526e+06
      79.8063  1.34131e+06
      79.6633  1.38898e+06
      79.5203  1.43834e+06
      79.3774  1.48945e+06
      79.2344  1.54236e+06
      79.0915  1.59714e+06
      78.9485  1.65386e+06
      78.8056  1.71258e+06
      78.6626  1.77338e+06
      78.5197  1.83632e+06
      78.3767  1.90148e+06
      78.2337  1.96894e+06
      78.0908  2.03878e+06
      77.9478  2.11109e+06
      77.8049  2.18595e+06
      77.6619  2.26344e+06
       77.519  2.34367e+06
       77.376  2.42673e+06
      77.2331  2.51271e+06
      77.0901  2.60173e+06
      76.9471  2.69388e+06
      76.8042  2.78927e+06
      76.6612  2.88803e+06
      76.5183  2.99026e+06
      76.3753  3.09609e+06
      76.2324  3.20565e+06
      76.0894  3.31906e+06
      75.9465  3.43646e+06
      75.8035  3.55799e+06
      75.6605  3.68379e+06
      75.5176  3.81402e+06
      75.3746  3.94882e+06
      75.2317  4.08836e+06
      75.0887  4.23281e+06
      74.9458  4.38233e+06
      74.8028   4.5371e+06
      74.6599   4.6973e+06
      74.5169  4.86313e+06
      74.3739  5.03479e+06
       74.231  5.21246e+06
       74.088  5.39637e+06
      73.9451  5.58673e+06
      73.8021  5.78377e+06
      73.6592  5.98772e+06
      73.5162  6.19881e+06
      73.3733  6.41731e+06
      73.2303  6.64346e+06
      73.0874  6.87754e+06
      72.9444  7.11981e+06
      72.8014  7.37057e+06
      72.6585  7.63011e+06
      72.5155  7.89874e+06
      72.3726  8.17677e+06
      72.2296  8.46452e+06
      72.0867  8.76235e+06
      71.9437  9.07059e+06
      71.8008  9.38961e+06
      71.6578  9.71978e+06
      71.5148  1.00615e+07
      71.3719  1.04152e+07
      71.2289  1.07812e+07
       71.086    1.116e+07
       70.943   1.1552e+07
      70.8001  1.19577e+07
      70.6571  1.23776e+07
      70.5142  1.28121e+07
      70.3712  1.32618e+07
      70.2282  1.37272e+07
      70.0853  1.42088e+07
      69.9423  1.47073e+07
      69.7994   1.5223e+07
      69.6564  1.57568e+07
      69.5135  1.63092e+07
      69.3705  1.68808e+07
      69.2276  1.74723e+07
      69.0846  1.80845e+07
      68.9416  1.87179e+07
      68.7987  1.93734e+07
      68.6557  2.00517e+07
      68.5128  2.07536e+07
      68.3698    2.148e+07
      68.2269  2.22316e+07
      68.0839  2.30093e+07
       67.941  2.38141e+07
       67.798  2.46468e+07
       67.655  2.55085e+07
      67.5121  2.64001e+07
      67.3691  2.73227e+07
      67.2262  2.82773e+07
      67.0832   2.9265e+07
      66.9403  3.02871e+07
      66.7973  3.13446e+07
      66.6544  3.24388e+07
      66.5114  3.35709e+07
      66.3684  3.47424e+07
      66.2255  3.59544e+07
      66.0825  3.72084e+07
      65.9396  3.85059e+07
      65.7966  3.98484e+07
      65.6537  4.12374e+07
      65.5107  4.26744e+07
      65.3678  4.41612e+07
      65.2248  4.56995e+07
      65.0819   4.7291e+07
      64.9389  4.89376e+07
      64.7959  5.06412e+07
       64.653  5.24036e+07
        64.51   5.4227e+07
      64.3671  5.61135e+07
      64.2241  5.80651e+07
      64.0812  6.00841e+07
      63.9382  6.21729e+07
      63.7953  6.43338e+07
      63.6523  6.65694e+07
      63.5093  6.88821e+07
      63.3664  7.12746e+07
      63.2234  7.37497e+07
      63.0805  7.63101e+07
      62.9375  7.89588e+07
      62.7946  8.16989e+07
      62.6516  8.45334e+07
      62.5087  8.74656e+07
      62.3657  9.04988e+07
      62.2227  9.36365e+07
      62.0798  9.68822e+07
      61.9368   1.0024e+08
      61.7939  1.03713e+08
      61.6509  1.07305e+08
       61.508  1.11021e+08
       61.365  1.14865e+08
      61.2221  1.18842e+08
      61.0791  1.22954e+08
      60.9361  1.27209e+08
      60.7932  1.31609e+08
      60.6502  1.36161e+08
      60.5073  1.40868e+08
      60.3643  1.45738e+08
      60.2214  1.50775e+08
      60.0784  1.55984e+08
      59.9355  1.61372e+08
      59.7925  1.66945e+08
      59.6495   1.7271e+08
      59.5066  1.78671e+08
      59.3636  1.84838e+08
      59.2207  1.91215e+08
      59.0777  1.97811e+08
      58.9348  2.04633e+08
      58.7918  2.11688e+08
      58.6489  2.18985e+08
      58.5059  2.26532e+08
      58.3629  2.34337e+08
        58.22  2.42409e+08
       58.077  2.50757e+08
      57.9341   2.5939e+08
      57.7911  2.68319e+08
      57.6482  2.77552e+08
      57.5052  2.87101e+08
      57.3623  2.96977e+08
      57.2193  3.07189e+08
      57.0764   3.1775e+08
      56.9334  3.28671e+08
      56.7904  3.39966e+08
      56.6475  3.51645e+08
      56.5045  3.63722e+08
      56.3616  3.76212e+08
      56.2186  3.89127e+08
      56.0757  4.02482e+08
      55.9327  4.16292e+08
      55.7898  4.30573e+08
      55.6468  4.45339e+08
      55.5038  4.60609e+08
      55.3609  4.76398e+08
      55.2179  4.92724e+08
       55.075  5.09605e+08
       54.932  5.27061e+08
      54.7891   5.4511e+08
      54.6461  5.63772e+08
      54.5032  5.83068e+08
      54.3602   6.0302e+08
      54.2172  6.23649e+08
      54.0743  6.44979e+08
      53.9313  6.67032e+08
      53.7884  6.89834e+08
      53.6454  7.13409e+08
      53.5025  7.37784e+08
      53.3595  7.62986e+08
      53.2166  7.89041e+08
      53.0736  8.15979e+08
      52.9306   8.4383e+08
      52.7877  8.72624e+08
      52.6447  9.02393e+08
      52.5018  9.33169e+08
      52.3588  9.64987e+08
      52.2159  9.97882e+08
      52.0729  1.03189e+09
        51.93  1.06704e+09
       51.787  1.10339e+09
       51.644  1.14096e+09
      51.5011  1.17981e+09
      51.3581  1.21996e+09
      51.2152  1.26147e+09
      51.0722  1.30438e+09
      50.9293  1.34874e+09
      50.7863  1.39459e+09
      50.6434    1.442e+09
      50.5004    1.491e+09
      50.3575  1.54165e+09
      50.2145  1.59401e+09
      50.0715  1.64813e+09
      49.9286  1.70407e+09
      49.7856   1.7619e+09
      49.6427  1.82168e+09
      49.4997  1.88346e+09
      49.3568  1.94733e+09
      49.2138  2.01334e+09
      49.0709  2.08157e+09
      48.9279   2.1521e+09
      48.7849  2.22499e+09
       48.642  2.30033e+09
       48.499  2.37821e+09
      48.3561   2.4587e+09
      48.2131  2.54188e+09
      48.0702  2.62786e+09
      47.9272  2.71673e+09
      47.7843  2.80857e+09
      47.6413  2.90349e+09
      47.4983   3.0016e+09
      47.3554  3.10299e+09
      47.2124  3.20777e+09
      47.0695  3.31606e+09
      46.9265  3.42798e+09
      46.7836  3.54365e+09
      46.6406  3.66318e+09
      46.4977  3.78671e+09
      46.3547  3.91437e+09
      46.2117  4.04629e+09
      46.0688  4.18263e+09
      45.9258  4.32352e+09
      45.7829  4.46911e+09
      45.6399  4.61956e+09
       45.497  4.77503e+09
       45.354  4.93569e+09
      45.2111  5.10171e+09
      45.0681  5.27326e+09
      44.9251  5.45053e+09
      44.7822  5.63371e+09
      44.6392  5.82299e+09
      44.4963  6.01857e+09
      44.3533  6.22066e+09
      44.2104  6.42948e+09
      44.0674  6.64525e+09
      43.9245  6.86819e+09
      43.7815  7.09854e+09
      43.6385  7.33655e+09
      43.4956  7.58247e+09
      43.3526  7.83655e+09
      43.2097  8.09907e+09
      43.0667  8.37031e+09
      42.9238  8.65055e+09
      42.7808  8.94008e+09
      42.6379  9.23922e+09
      42.4949  9.54827e+09
       42.352  9.86757e+09
       42.209  1.01974e+10
       42.066  1.05382e+10
      41.9231  1.08903e+10
      41.7801  1.12541e+10
      41.6372  1.16298e+10
      41.4942   1.2018e+10
      41.3513  1.24191e+10
      41.2083  1.28334e+10
      41.0654  1.32614e+10
      40.9224  1.37035e+10
      40.7794  1.41602e+10
      40.6365   1.4632e+10
      40.4935  1.51194e+10
      40.3506  1.56229e+10
      40.2076  1.61429e+10
      40.0647  1.66802e+10
      39.9217  1.72351e+10
      39.7788  1.78083e+10
      39.6358  1.84003e+10
      39.4928  1.90119e+10
      39.3499  1.96436e+10
