Temperature = 1612.97K
THERMAL DISTRIBUTIONS:
  E, kcal/mol           W1
        141.7    0.0591618
      141.557    0.0614543
      141.414    0.0638355
      141.271    0.0663087
      141.128    0.0688775
      140.985    0.0715455
      140.842    0.0743166
        140.7    0.0771947
      140.557    0.0801841
      140.414    0.0832888
      140.271    0.0865135
      140.128    0.0898627
      139.985    0.0933412
      139.842     0.096954
      139.699     0.100706
      139.556     0.104603
      139.413     0.108651
       139.27     0.112855
      139.127      0.11722
      138.984     0.121755
      138.841     0.126464
      138.698     0.131355
      138.555     0.136435
      138.412      0.14171
      138.269     0.147189
      138.126     0.152879
      137.983     0.158789
       137.84     0.164926
      137.697       0.1713
      137.554      0.17792
      137.412     0.184795
      137.269     0.191934
      137.126     0.199349
      136.983      0.20705
       136.84     0.215047
      136.697     0.223352
      136.554     0.231977
      136.411     0.240934
      136.268     0.250236
      136.125     0.259896
      135.982     0.269929
      135.839     0.280347
      135.696     0.291166
      135.553     0.302402
       135.41      0.31407
      135.267     0.326187
      135.124      0.33877
      134.981     0.351838
      134.838     0.365408
      134.695       0.3795
      134.552     0.394134
      134.409      0.40933
      134.267     0.425111
      134.124     0.441499
      133.981     0.458516
      133.838     0.476188
      133.695     0.494539
      133.552     0.513595
      133.409     0.533383
      133.266     0.553932
      133.123      0.57527
       132.98     0.597427
      132.837     0.620436
      132.694     0.644328
      132.551     0.669138
      132.408       0.6949
      132.265     0.721651
      132.122      0.74943
      131.979     0.778274
      131.836     0.808225
      131.693     0.839326
       131.55      0.87162
      131.407     0.905154
      131.264     0.939973
      131.122     0.976128
      130.979      1.01367
      130.836      1.05265
      130.693      1.09313
       130.55      1.13516
      130.407       1.1788
      130.264      1.22411
      130.121      1.27116
      129.978      1.32001
      129.835      1.37073
      129.692       1.4234
      129.549      1.47809
      129.406      1.53487
      129.263      1.59382
       129.12      1.65503
      128.977      1.71859
      128.834      1.78458
      128.691       1.8531
      128.548      1.92424
      128.405       1.9981
      128.262      2.07479
      128.119      2.15441
      127.976      2.23708
      127.834      2.32292
      127.691      2.41203
      127.548      2.50456
      127.405      2.60063
      127.262      2.70036
      127.119      2.80392
      126.976      2.91143
      126.833      3.02305
       126.69      3.13894
      126.547      3.25925
      126.404      3.38417
      126.261      3.51386
      126.118       3.6485
      125.975      3.78829
      125.832      3.93342
      125.689      4.08408
      125.546      4.24051
      125.403       4.4029
       125.26       4.5715
      125.117      4.74653
      124.974      4.92825
      124.831       5.1169
      124.689      5.31275
      124.546      5.51607
      124.403      5.72715
       124.26      5.94628
      124.117      6.17377
      123.974      6.40994
      123.831      6.65511
      123.688      6.90963
      123.545      7.17386
      123.402      7.44816
      123.259      7.73291
      123.116      8.02852
      122.973      8.33539
       122.83      8.65396
      122.687      8.98466
      122.544      9.32796
      122.401      9.68433
      122.258      10.0543
      122.115      10.4383
      121.972       10.837
      121.829      11.2508
      121.686      11.6804
      121.543      12.1264
      121.401      12.5893
      121.258      13.0698
      121.115      13.5686
      120.972      14.0864
      120.829      14.6239
      120.686      15.1818
      120.543       15.761
        120.4      16.3622
      120.257      16.9862
      120.114      17.6339
      119.971      18.3063
      119.828      19.0042
      119.685      19.7287
      119.542      20.4807
      119.399      21.2612
      119.256      22.0714
      119.113      22.9124
       118.97      23.7853
      118.827      24.6914
      118.684      25.6319
      118.541      26.6081
      118.398      27.6213
      118.256       28.673
      118.113      29.7646
       117.97      30.8976
      117.827      32.0736
      117.684      33.2943
      117.541      34.5612
      117.398      35.8762
      117.255       37.241
      117.112      38.6576
      116.969       40.128
      116.826       41.654
      116.683      43.2379
       116.54      44.8818
      116.397       46.588
      116.254      48.3589
      116.111      50.1969
      115.968      52.1044
      115.825      54.0843
      115.682      56.1391
      115.539      58.2717
      115.396       60.485
      115.253      62.7821
      115.111      65.1662
      114.968      67.6405
      114.825      70.2085
      114.682      72.8736
      114.539      75.6395
      114.396        78.51
      114.253      81.4892
       114.11      84.5809
      113.967      87.7896
      113.824      91.1196
      113.681      94.5755
      113.538       98.162
      113.395      101.884
      113.252      105.747
      113.109      109.755
      112.966      113.915
      112.823      118.233
       112.68      122.713
      112.537      127.362
      112.394      132.187
      112.251      137.194
      112.108      142.391
      111.965      147.783
      111.823      153.379
       111.68      159.185
      111.537      165.211
      111.394      171.465
      111.251      177.954
      111.108      184.688
      110.965      191.676
      110.822      198.927
      110.679      206.451
      110.536       214.26
      110.393      222.362
       110.25       230.77
      110.107      239.495
      109.964      248.548
      109.821      257.942
      109.678       267.69
      109.535      277.805
      109.392      288.301
      109.249      299.193
      109.106      310.494
      108.963       322.22
       108.82      334.388
      108.678      347.014
      108.535      360.114
      108.392      373.708
      108.249      387.812
      108.106      402.447
      107.963      417.633
       107.82      433.389
      107.677      449.737
      107.534        466.7
      107.391      484.301
      107.248      502.563
      107.105       521.51
      106.962       541.17
      106.819      561.568
      106.676      582.732
      106.533      604.691
       106.39      627.474
      106.247      651.112
      106.104      675.638
      105.961      701.084
      105.818      727.485
      105.675      754.876
      105.532      783.295
       105.39      812.779
      105.247      843.369
      105.104      875.107
      104.961      908.034
      104.818      942.195
      104.675      977.637
      104.532      1014.41
      104.389      1052.55
      104.246      1092.13
      104.103      1133.19
       103.96      1175.79
      103.817      1219.98
      103.674      1265.83
      103.531      1313.39
      103.388      1362.74
      103.245      1413.93
      103.102      1467.03
      102.959      1522.12
      102.816      1579.28
      102.673      1638.57
       102.53      1700.08
      102.387      1763.89
      102.245      1830.09
      102.102      1898.76
      101.959      1969.99
      101.816      2043.89
      101.673      2120.55
       101.53      2200.08
      101.387      2282.57
      101.244      2368.15
      101.101      2456.92
      100.958         2549
      100.815      2644.53
      100.672      2743.62
      100.529      2846.41
      100.386      2953.03
      100.243      3063.63
        100.1      3178.36
      99.9572      3297.37
      99.8143      3420.82
      99.6713      3548.87
      99.5284      3681.69
      99.3854      3819.47
      99.2425      3962.38
      99.0995      4110.61
      98.9566      4264.37
      98.8136      4423.86
      98.6706      4589.29
      98.5277      4760.88
      98.3847      4938.86
      98.2418      5123.47
      98.0988      5314.95
      97.9559      5513.55
      97.8129      5719.55
        97.67      5933.21
       97.527      6154.83
       97.384      6384.68
      97.2411      6623.09
      97.0981      6870.36
      96.9552      7126.82
      96.8122      7392.82
      96.6693      7668.71
      96.5263      7954.84
      96.3834      8251.62
      96.2404      8559.41
      96.0974      8878.64
      95.9545      9209.73
      95.8115      9553.12
      95.6686      9909.25
      95.5256      10278.6
      95.3827      10661.7
      95.2397      11058.9
      95.0968        11471
      94.9538      11898.3
      94.8108      12341.4
      94.6679        12801
      94.5249      13277.7
       94.382        13772
       94.239      14284.6
      94.0961      14816.3
      93.9531      15367.6
      93.8102      15939.4
      93.6672      16532.3
      93.5242      17147.2
      93.3813      17784.9
      93.2383      18446.2
      93.0954        19132
      92.9524      19843.2
      92.8095      20580.7
      92.6665      21345.5
      92.5236      22138.5
      92.3806        22961
      92.2376      23813.8
      92.0947      24698.2
      91.9517      25615.3
      91.8088      26566.3
      91.6658      27552.4
      91.5229        28575
      91.3799      29635.4
       91.237      30734.9
       91.094      31875.1
      90.9511      33057.4
      90.8081      34283.3
      90.6651      35554.5
      90.5222      36872.7
      90.3792      38239.4
      90.2363      39656.7
      90.0933      41126.2
      89.9504      42649.9
      89.8074      44229.8
      89.6645        45868
      89.5215      47566.6
      89.3785      49327.8
      89.2356        51154
      89.0926      53047.4
      88.9497      55010.6
      88.8067      57046.2
      88.6638      59156.7
      88.5208      61344.9
      88.3779      63613.8
      88.2349      65966.1
      88.0919      68405.1
       87.949      70933.8
       87.806      73555.5
      87.6631      76273.8
      87.5201        79092
      87.3772      82013.8
      87.2342      85043.2
      87.0913      88183.8
      86.9483        91440
      86.8053      94815.8
      86.6624      98315.7
      86.5194       101944
      86.3765       105706
      86.2335       109606
      86.0906       113649
      85.9476       117841
      85.8047       122186
      85.6617       126691
      85.5187       131361
      85.3758       136203
      85.2328       141222
      85.0899       146425
      84.9469       151819
       84.804       157411
       84.661       163208
      84.5181       169218
      84.3751       175447
      84.2321       181905
      84.0892       188599
      83.9462       195539
      83.8033       202733
      83.6603       210190
      83.5174       217920
      83.3744       225933
      83.2315       234239
      83.0885       242849
      82.9456       251774
      82.8026       261025
      82.6596       270615
      82.5167       280555
      82.3737       290859
      82.2308       301539
      82.0878       312609
      81.9449       324084
      81.8019       335978
       81.659       348307
       81.516       361085
       81.373       374330
      81.2301       388059
      81.0871       402288
      80.9442       417037
      80.8012       432324
      80.6583       448168
      80.5153       464590
      80.3724       481611
      80.2294       499252
      80.0864       517536
      79.9435       536487
      79.8005       556128
      79.6576       576484
      79.5146       597582
      79.3717       619447
      79.2287       642109
      79.0858       665596
      78.9428       689937
      78.7998       715165
      78.6569       741309
      78.5139       768405
       78.371       796486
       78.228       825588
      78.0851       855748
      77.9421       887003
      77.7992       919395
      77.6562       952963
      77.5132       987751
      77.3703   1.0238e+06
      77.2273  1.06116e+06
      77.0844  1.09988e+06
      76.9414     1.14e+06
      76.7985  1.18158e+06
      76.6555  1.22466e+06
      76.5126  1.26931e+06
      76.3696  1.31558e+06
      76.2267  1.36352e+06
      76.0837  1.41321e+06
      75.9407  1.46469e+06
      75.7978  1.51804e+06
      75.6548  1.57332e+06
      75.5119  1.63061e+06
      75.3689  1.68997e+06
       75.226  1.75148e+06
       75.083  1.81521e+06
      74.9401  1.88125e+06
      74.7971  1.94969e+06
      74.6541   2.0206e+06
      74.5112  2.09407e+06
      74.3682   2.1702e+06
      74.2253  2.24908e+06
      74.0823  2.33082e+06
      73.9394  2.41551e+06
      73.7964  2.50326e+06
      73.6535  2.59418e+06
      73.5105  2.68838e+06
      73.3675  2.78599e+06
      73.2246  2.88712e+06
      73.0816   2.9919e+06
      72.9387  3.10047e+06
      72.7957  3.21295e+06
      72.6528  3.32949e+06
      72.5098  3.45023e+06
      72.3669  3.57533e+06
      72.2239  3.70494e+06
      72.0809  3.83922e+06
       71.938  3.97834e+06
       71.795  4.12248e+06
      71.6521   4.2718e+06
      71.5091  4.42651e+06
      71.3662  4.58678e+06
      71.2232  4.75283e+06
      71.0803  4.92486e+06
      70.9373  5.10307e+06
      70.7943   5.2877e+06
      70.6514  5.47897e+06
      70.5084  5.67712e+06
      70.3655  5.88239e+06
      70.2225  6.09505e+06
      70.0796  6.31534e+06
      69.9366  6.54356e+06
      69.7937  6.77997e+06
      69.6507  7.02488e+06
      69.5077  7.27858e+06
      69.3648   7.5414e+06
      69.2218  7.81364e+06
      69.0789  8.09566e+06
      68.9359   8.3878e+06
       68.793  8.69042e+06
        68.65  9.00389e+06
      68.5071   9.3286e+06
      68.3641  9.66496e+06
      68.2212  1.00134e+07
      68.0782  1.03743e+07
      67.9352  1.07481e+07
      67.7923  1.11353e+07
      67.6493  1.15364e+07
      67.5064  1.19519e+07
      67.3634  1.23822e+07
      67.2205  1.28279e+07
      67.0775  1.32896e+07
      66.9346  1.37678e+07
      66.7916  1.42631e+07
      66.6486  1.47761e+07
      66.5057  1.53074e+07
      66.3627  1.58578e+07
      66.2198  1.64278e+07
      66.0768  1.70181e+07
      65.9339  1.76296e+07
      65.7909  1.82629e+07
       65.648  1.89188e+07
       65.505  1.95981e+07
       65.362  2.03017e+07
      65.2191  2.10303e+07
      65.0761   2.1785e+07
      64.9332  2.25665e+07
      64.7902   2.3376e+07
      64.6473  2.42143e+07
      64.5043  2.50824e+07
      64.3614  2.59816e+07
      64.2184  2.69127e+07
      64.0754   2.7877e+07
      63.9325  2.88756e+07
      63.7895  2.99098e+07
      63.6466  3.09808e+07
      63.5036  3.20899e+07
      63.3607  3.32385e+07
      63.2177  3.44279e+07
      63.0748  3.56596e+07
      62.9318   3.6935e+07
      62.7888  3.82559e+07
      62.6459  3.96236e+07
      62.5029    4.104e+07
        62.36  4.25066e+07
       62.217  4.40254e+07
      62.0741   4.5598e+07
      61.9311  4.72265e+07
      61.7882  4.89127e+07
      61.6452  5.06588e+07
      61.5022  5.24668e+07
      61.3593  5.43389e+07
      61.2163  5.62774e+07
      61.0734  5.82846e+07
      60.9304  6.03629e+07
      60.7875  6.25148e+07
      60.6445   6.4743e+07
      60.5016    6.705e+07
      60.3586  6.94388e+07
      60.2157   7.1912e+07
      60.0727  7.44728e+07
      59.9297  7.71241e+07
      59.7868  7.98693e+07
      59.6438  8.27115e+07
      59.5009  8.56541e+07
      59.3579  8.87008e+07
       59.215  9.18551e+07
       59.072  9.51208e+07
      58.9291  9.85019e+07
      58.7861  1.02002e+08
      58.6431  1.05626e+08
      58.5002  1.09378e+08
      58.3572  1.13262e+08
      58.2143  1.17284e+08
      58.0713  1.21447e+08
      57.9284  1.25757e+08
      57.7854  1.30218e+08
      57.6425  1.34837e+08
      57.4995  1.39619e+08
      57.3565  1.44569e+08
      57.2136  1.49693e+08
      57.0706  1.54998e+08
      56.9277   1.6049e+08
      56.7847  1.66174e+08
      56.6418  1.72059e+08
      56.4988   1.7815e+08
      56.3559  1.84456e+08
      56.2129  1.90984e+08
      56.0699   1.9774e+08
       55.927  2.04734e+08
       55.784  2.11974e+08
      55.6411  2.19468e+08
      55.4981  2.27225e+08
      55.3552  2.35255e+08
      55.2122  2.43566e+08
      55.0693  2.52168e+08
      54.9263  2.61072e+08
      54.7833  2.70289e+08
      54.6404  2.79828e+08
      54.4974  2.89702e+08
      54.3545  2.99922e+08
      54.2115  3.10499e+08
      54.0686  3.21447e+08
      53.9256  3.32778e+08
      53.7827  3.44506e+08
      53.6397  3.56644e+08
      53.4967  3.69207e+08
      53.3538  3.82209e+08
      53.2108  3.95665e+08
      53.0679  4.09592e+08
      52.9249  4.24005e+08
       52.782  4.38922e+08
       52.639  4.54359e+08
      52.4961  4.70336e+08
      52.3531  4.86871e+08
      52.2102  5.03982e+08
      52.0672   5.2169e+08
      51.9242  5.40016e+08
      51.7813  5.58981e+08
      51.6383  5.78606e+08
      51.4954  5.98916e+08
      51.3524  6.19933e+08
      51.2095  6.41683e+08
      51.0665  6.64189e+08
      50.9236  6.87479e+08
      50.7806  7.11579e+08
      50.6376  7.36518e+08
      50.4947  7.62325e+08
      50.3517  7.89028e+08
      50.2088   8.1666e+08
      50.0658  8.45252e+08
      49.9229  8.74838e+08
      49.7799  9.05451e+08
       49.637  9.37127e+08
       49.494  9.69903e+08
       49.351  1.00382e+09
      49.2081  1.03891e+09
      49.0651  1.07521e+09
      48.9222  1.11278e+09
      48.7792  1.15165e+09
      48.6363  1.19186e+09
      48.4933  1.23347e+09
      48.3504  1.27652e+09
      48.2074  1.32106e+09
      48.0644  1.36714e+09
      47.9215  1.41482e+09
      47.7785  1.46414e+09
      47.6356  1.51518e+09
      47.4926  1.56797e+09
      47.3497   1.6226e+09
      47.2067   1.6791e+09
      47.0638  1.73757e+09
      46.9208  1.79805e+09
      46.7778  1.86062e+09
      46.6349  1.92534e+09
      46.4919  1.99231e+09
       46.349  2.06158e+09
       46.206  2.13324e+09
      46.0631  2.20737e+09
      45.9201  2.28406e+09
      45.7772  2.36339e+09
      45.6342  2.44545e+09
      45.4913  2.53034e+09
      45.3483  2.61815e+09
      45.2053  2.70898e+09
      45.0624  2.80294e+09
      44.9194  2.90013e+09
      44.7765  3.00066e+09
      44.6335  3.10464e+09
      44.4906   3.2122e+09
      44.3476  3.32346e+09
      44.2047  3.43853e+09
      44.0617  3.55756e+09
      43.9187  3.68067e+09
      43.7758  3.80801e+09
      43.6328  3.93972e+09
      43.4899  4.07594e+09
      43.3469  4.21683e+09
       43.204  4.36255e+09
       43.061  4.51326e+09
      42.9181  4.66914e+09
      42.7751  4.83035e+09
      42.6321  4.99708e+09
      42.4892  5.16951e+09
      42.3462  5.34785e+09
      42.2033  5.53228e+09
      42.0603  5.72302e+09
      41.9174  5.92027e+09
      41.7744  6.12427e+09
      41.6315  6.33523e+09
      41.4885   6.5534e+09
      41.3455  6.77901e+09
      41.2026  7.01232e+09
      41.0596  7.25359e+09
      40.9167  7.50309e+09
      40.7737  7.76109e+09
      40.6308  8.02788e+09
      40.4878  8.30377e+09
      40.3449  8.58905e+09
      40.2019  8.88404e+09
      40.0589  9.18908e+09
       39.916  9.50449e+09
       39.773  9.83063e+09
      39.6301  1.01679e+10
      39.4871  1.05166e+10
      39.3442  1.08771e+10
      39.2012  1.12499e+10
      39.0583  1.16353e+10
      38.9153  1.20339e+10
      38.7723  1.24459e+10
      38.6294   1.2872e+10
      38.4864  1.33125e+10
      38.3435  1.37679e+10
      38.2005  1.42387e+10
      38.0576  1.47256e+10
      37.9146  1.52289e+10
      37.7717  1.57492e+10
      37.6287  1.62871e+10
      37.4858  1.68433e+10
      37.3428  1.74183e+10
      37.1998  1.80127e+10
      37.0569  1.86272e+10
      36.9139  1.92624e+10
       36.771  1.99191e+10
       36.628   2.0598e+10
      36.4851  2.12999e+10
      36.3421  2.20254e+10
