Temperature = 1467.95K
THERMAL DISTRIBUTIONS:
  E, kcal/mol           W1
      130.172   0.00941429
      130.029   0.00981928
      129.886    0.0102416
      129.743    0.0106821
        129.6    0.0111415
      129.458    0.0116206
      129.315    0.0121203
      129.172    0.0126414
      129.029    0.0131848
      128.886    0.0137516
      128.743    0.0143426
        128.6     0.014959
      128.457    0.0156018
      128.314    0.0162722
      128.171    0.0169713
      128.028    0.0177004
      127.885    0.0184607
      127.742    0.0192536
      127.599    0.0200805
      127.456    0.0209428
      127.313    0.0218421
       127.17    0.0227798
      127.027    0.0237578
      126.884    0.0247776
      126.741    0.0258411
      126.598    0.0269501
      126.455    0.0281066
      126.312    0.0293126
       126.17    0.0305703
      126.027    0.0318817
      125.884    0.0332493
      125.741    0.0346754
      125.598    0.0361626
      125.455    0.0377133
      125.312    0.0393304
      125.169    0.0410167
      125.026    0.0427751
      124.883    0.0446086
       124.74    0.0465206
      124.597    0.0485144
      124.454    0.0505933
      124.311    0.0527612
      124.168    0.0550217
      124.025    0.0573788
      123.882    0.0598366
      123.739    0.0623994
      123.596    0.0650718
      123.453    0.0678583
       123.31    0.0707638
      123.167    0.0737935
      123.025    0.0769525
      122.882    0.0802464
      122.739    0.0836809
      122.596    0.0872621
      122.453    0.0909962
       122.31    0.0948896
      122.167    0.0989492
      122.024     0.103182
      121.881     0.107596
      121.738     0.112197
      121.595     0.116995
      121.452     0.121998
      121.309     0.127214
      121.166     0.132653
      121.023     0.138323
       120.88     0.144236
      120.737       0.1504
      120.594     0.156827
      120.451     0.163528
      120.308     0.170515
      120.165     0.177799
      120.022     0.185394
      119.879     0.193312
      119.737     0.201568
      119.594     0.210175
      119.451     0.219149
      119.308     0.228505
      119.165      0.23826
      119.022      0.24843
      118.879     0.259032
      118.736     0.270087
      118.593     0.281611
       118.45     0.293626
      118.307     0.306153
      118.164     0.319212
      118.021     0.332827
      117.878     0.347021
      117.735     0.361819
      117.592     0.377246
      117.449      0.39333
      117.306     0.410097
      117.163     0.427577
       117.02       0.4458
      116.877     0.464798
      116.734     0.484603
      116.592      0.50525
      116.449     0.526774
      116.306     0.549213
      116.163     0.572605
       116.02      0.59699
      115.877     0.622412
      115.734     0.648912
      115.591     0.676539
      115.448     0.705338
      115.305      0.73536
      115.162     0.766656
      115.019      0.79928
      114.876     0.833289
      114.733     0.868742
       114.59     0.905698
      114.447     0.944222
      114.304     0.984381
      114.161      1.02624
      114.018      1.06988
      113.875      1.11537
      113.732      1.16278
      113.589      1.21221
      113.447      1.26373
      113.304      1.31744
      113.161      1.37342
      113.018      1.43177
      112.875       1.4926
      112.732        1.556
      112.589      1.62209
      112.446      1.69098
      112.303      1.76278
       112.16      1.83763
      112.017      1.91565
      111.874      1.99696
      111.731      2.08172
      111.588      2.17007
      111.445      2.26216
      111.302      2.35814
      111.159      2.45819
      111.016      2.56246
      110.873      2.67115
       110.73      2.78444
      110.587      2.90251
      110.444      3.02558
      110.301      3.15385
      110.159      3.28755
      110.016      3.42689
      109.873      3.57213
       109.73       3.7235
      109.587      3.88127
      109.444      4.04571
      109.301      4.21709
      109.158      4.39571
      109.015      4.58188
      108.872       4.7759
      108.729      4.97812
      108.586      5.18888
      108.443      5.40853
        108.3      5.63746
      108.157      5.87605
      108.014       6.1247
      107.871      6.38385
      107.728      6.65393
      107.585       6.9354
      107.442      7.22874
      107.299      7.53446
      107.156      7.85306
      107.014       8.1851
      106.871      8.53114
      106.728      8.89176
      106.585      9.26759
      106.442      9.65925
      106.299      10.0674
      106.156      10.4928
      106.013       10.936
       105.87       11.398
      105.727      11.8794
      105.584      12.3811
      105.441      12.9039
      105.298      13.4487
      105.155      14.0164
      105.012      14.6081
      104.869      15.2246
      104.726      15.8671
      104.583      16.5366
       104.44      17.2342
      104.297      17.9613
      104.154      18.7189
      104.011      19.5083
      103.868       20.331
      103.726      21.1882
      103.583      22.0814
       103.44      23.0122
      103.297      23.9822
      103.154      24.9929
      103.011       26.046
      102.868      27.1434
      102.725      28.2868
      102.582      29.4783
      102.439      30.7199
      102.296      32.0135
      102.153      33.3615
       102.01       34.766
      101.867      36.2295
      101.724      37.7544
      101.581      39.3433
      101.438      40.9989
      101.295      42.7239
      101.152      44.5213
      101.009       46.394
      100.866      48.3452
      100.723      50.3783
      100.581      52.4966
      100.438      54.7037
      100.295      57.0033
      100.152      59.3992
      100.009      61.8955
      99.8657      64.4964
      99.7228      67.2063
      99.5798      70.0296
      99.4369      72.9712
      99.2939      76.0359
       99.151       79.229
       99.008      82.5557
      98.8651      86.0216
      98.7221      89.6326
      98.5791      93.3946
      98.4362      97.3141
      98.2932      101.398
      98.1503      105.652
      98.0073      110.084
      97.8644      114.701
      97.7214      119.512
      97.5785      124.523
      97.4355      129.744
      97.2926      135.184
      97.1496       140.85
      97.0066      146.753
      96.8637      152.903
      96.7207       159.31
      96.5778      165.984
      96.4348      172.937
      96.2919      180.181
      96.1489      187.726
       96.006      195.587
       95.863      203.776
        95.72      212.306
      95.5771      221.192
      95.4341      230.449
      95.2912      240.092
      95.1482      250.138
      95.0053      260.602
      94.8623      271.502
      94.7194      282.857
      94.5764      294.685
      94.4334      307.006
      94.2905      319.841
      94.1475       333.21
      94.0046      347.136
      93.8616      361.642
      93.7187      376.753
      93.5757      392.492
      93.4328      408.887
      93.2898      425.965
      93.1468      443.753
      93.0039      462.281
      92.8609       481.58
       92.718      501.683
       92.575      522.621
      92.4321      544.431
      92.2891      567.147
      92.1462      590.808
      92.0032      615.453
      91.8602      641.122
      91.7173      667.858
      91.5743      695.705
      91.4314      724.709
      91.2884      754.918
      91.1455      786.382
      91.0025      819.153
      90.8596      853.284
      90.7166      888.833
      90.5736      925.857
      90.4307      964.418
      90.2877      1004.58
      90.1448      1046.41
      90.0018      1089.97
      89.8589      1135.34
      89.7159      1182.59
       89.573      1231.81
        89.43      1283.06
      89.2871      1336.44
      89.1441      1392.03
      89.0011      1449.92
      88.8582      1510.22
      88.7152      1573.01
      88.5723       1638.4
      88.4293       1706.5
      88.2864      1777.42
      88.1434      1851.28
      88.0005       1928.2
      87.8575       2008.3
      87.7145      2091.72
      87.5716      2178.59
      87.4286      2269.05
      87.2857      2363.26
      87.1427      2461.36
      86.9998      2563.52
      86.8568       2669.9
      86.7139      2780.68
      86.5709      2896.05
      86.4279      3016.18
       86.285      3141.27
       86.142      3271.54
      85.9991      3407.19
      85.8561      3548.44
      85.7132      3695.52
      85.5702      3848.68
      85.4273      4008.16
      85.2843      4174.23
      85.1413      4347.15
      84.9984       4527.2
      84.8554      4714.69
      84.7125      4909.91
      84.5695      5113.18
      84.4266      5324.84
      84.2836      5545.23
      84.1407       5774.7
      83.9977      6013.63
      83.8547      6262.41
      83.7118      6521.44
      83.5688      6791.15
      83.4259      7071.97
      83.2829      7364.35
        83.14      7668.78
       82.997      7985.74
      82.8541      8315.75
      82.7111      8659.35
      82.5681      9017.09
      82.4252      9389.55
      82.2822      9777.34
      82.1393      10181.1
      81.9963      10601.4
      81.8534      11039.1
      81.7104      11494.7
      81.5675        11969
      81.4245      12462.9
      81.2816      12977.1
      81.1386      13512.3
      80.9956      14069.6
      80.8527      14649.8
      80.7097      15253.8
      80.5668      15882.6
      80.4238      16537.2
      80.2809      17218.7
      80.1379      17928.2
       79.995      18666.7
       79.852      19435.6
       79.709        20236
      79.5661      21069.3
      79.4231      21936.7
      79.2802      22839.7
      79.1372      23779.7
      78.9943      24758.3
      78.8513      25776.9
      78.7084      26837.3
      78.5654      27941.2
      78.4224      29090.2
      78.2795      30286.3
      78.1365      31531.4
      77.9936      32827.5
      77.8506      34176.6
      77.7077        35581
      77.5647      37042.8
      77.4218      38564.4
      77.2788      40148.2
      77.1358      41796.9
      76.9929      43512.9
      76.8499      45299.2
       76.707      47158.4
       76.564      49093.7
      76.4211        51108
      76.2781      53204.6
      76.1352      55386.9
      75.9922      57658.3
      75.8492      60022.4
      75.7063      62483.1
      75.5633      65044.2
      75.4204      67709.9
      75.2774      70484.4
      75.1345        73372
      74.9915      76377.5
      74.8486      79505.5
      74.7056      82761.1
      74.5626      86149.4
      74.4197      89675.9
      74.2767      93346.1
      74.1338      97165.8
      73.9908       101141
      73.8479       105279
      73.7049       109584
       73.562       114066
       73.419       118729
      73.2761       123583
      73.1331       128634
      72.9901       133890
      72.8472       139361
      72.7042       145054
      72.5613       150978
      72.4183       157143
      72.2754       163560
      72.1324       170236
      71.9895       177185
      71.8465       184415
      71.7035       191939
      71.5606       199769
      71.4176       207917
      71.2747       216396
      71.1317       225219
      70.9888       234400
      70.8458       243954
      70.7029       253895
      70.5599       264239
      70.4169       275004
       70.274       286204
       70.131       297859
      69.9881       309986
      69.8451       322605
      69.7022       335735
      69.5592       349397
      69.4163       363612
      69.2733       378403
      69.1303       393793
      68.9874       409806
      68.8444       426467
      68.7015       443803
      68.5585       461840
      68.4156       480606
      68.2726       500131
      68.1297       520446
      67.9867       541583
      67.8437       563573
      67.7008       586453
      67.5578       610256
      67.4149       635022
      67.2719       660788
       67.129       687594
       66.986       715483
      66.8431       744497
      66.7001       774682
      66.5572       806086
      66.4142       838756
      66.2712       872744
      66.1283       908103
      65.9853       944887
      65.8424       983155
      65.6994  1.02296e+06
      65.5565  1.06438e+06
      65.4135  1.10746e+06
      65.2706  1.15228e+06
      65.1276   1.1989e+06
      64.9846   1.2474e+06
      64.8417  1.29785e+06
      64.6987  1.35034e+06
      64.5558  1.40493e+06
      64.4128  1.46172e+06
      64.2699   1.5208e+06
      64.1269  1.58225e+06
       63.984  1.64617e+06
       63.841  1.71266e+06
       63.698  1.78183e+06
      63.5551  1.85377e+06
      63.4121   1.9286e+06
      63.2692  2.00644e+06
      63.1262  2.08741e+06
      62.9833  2.17163e+06
      62.8403  2.25922e+06
      62.6974  2.35034e+06
      62.5544  2.44511e+06
      62.4114  2.54368e+06
      62.2685   2.6462e+06
      62.1255  2.75284e+06
      61.9826  2.86375e+06
      61.8396  2.97911e+06
      61.6967  3.09909e+06
      61.5537  3.22387e+06
      61.4108  3.35366e+06
      61.2678  3.48865e+06
      61.1248  3.62904e+06
      60.9819  3.77505e+06
      60.8389   3.9269e+06
       60.696  4.08484e+06
       60.553  4.24909e+06
      60.4101  4.41991e+06
      60.2671  4.59756e+06
      60.1242  4.78232e+06
      59.9812  4.97446e+06
      59.8382  5.17428e+06
      59.6953  5.38209e+06
      59.5523   5.5982e+06
      59.4094  5.82294e+06
      59.2664  6.05665e+06
      59.1235   6.2997e+06
      58.9805  6.55244e+06
      58.8376  6.81528e+06
      58.6946   7.0886e+06
      58.5517  7.37282e+06
      58.4087  7.66838e+06
      58.2657  7.97573e+06
      58.1228  8.29532e+06
      57.9798  8.62766e+06
      57.8369  8.97323e+06
      57.6939  9.33258e+06
       57.551  9.70623e+06
       57.408  1.00948e+07
      57.2651  1.04988e+07
      57.1221  1.09189e+07
      56.9791  1.13557e+07
      56.8362  1.18098e+07
      56.6932  1.22821e+07
      56.5503  1.27731e+07
      56.4073  1.32837e+07
      56.2644  1.38145e+07
      56.1214  1.43665e+07
      55.9785  1.49403e+07
      55.8355   1.5537e+07
      55.6925  1.61574e+07
      55.5496  1.68024e+07
      55.4066   1.7473e+07
      55.2637  1.81702e+07
      55.1207  1.88951e+07
      54.9778  1.96487e+07
      54.8348  2.04322e+07
      54.6919  2.12468e+07
      54.5489  2.20937e+07
      54.4059  2.29742e+07
       54.263  2.38895e+07
        54.12  2.48411e+07
      53.9771  2.58304e+07
      53.8341  2.68589e+07
      53.6912  2.79281e+07
      53.5482  2.90396e+07
      53.4053  3.01951e+07
      53.2623  3.13963e+07
      53.1193   3.2645e+07
      52.9764  3.39431e+07
      52.8334  3.52925e+07
      52.6905  3.66952e+07
      52.5475  3.81534e+07
      52.4046  3.96692e+07
      52.2616  4.12448e+07
      52.1187  4.28827e+07
      51.9757  4.45852e+07
      51.8327  4.63549e+07
      51.6898  4.81945e+07
      51.5468  5.01066e+07
      51.4039  5.20941e+07
      51.2609    5.416e+07
       51.118  5.63074e+07
       50.975  5.85394e+07
      50.8321  6.08593e+07
      50.6891  6.32706e+07
      50.5462  6.57769e+07
      50.4032  6.83818e+07
      50.2602  7.10893e+07
      50.1173  7.39034e+07
      49.9743  7.68282e+07
      49.8314   7.9868e+07
      49.6884  8.30273e+07
      49.5455  8.63109e+07
      49.4025  8.97236e+07
      49.2596  9.32703e+07
      49.1166  9.69564e+07
      48.9736  1.00787e+08
      48.8307  1.04769e+08
      48.6877  1.08906e+08
      48.5448  1.13206e+08
      48.4018  1.17675e+08
      48.2589  1.22319e+08
      48.1159  1.27145e+08
       47.973  1.32161e+08
        47.83  1.37373e+08
       47.687  1.42789e+08
      47.5441  1.48417e+08
      47.4011  1.54266e+08
      47.2582  1.60344e+08
      47.1152   1.6666e+08
      46.9723  1.73224e+08
      46.8293  1.80044e+08
      46.6864   1.8713e+08
      46.5434  1.94494e+08
      46.4004  2.02146e+08
      46.2575  2.10097e+08
      46.1145  2.18359e+08
      45.9716  2.26944e+08
      45.8286  2.35863e+08
      45.6857  2.45132e+08
      45.5427  2.54762e+08
      45.3998  2.64768e+08
      45.2568  2.75164e+08
      45.1138  2.85966e+08
      44.9709  2.97189e+08
      44.8279  3.08849e+08
       44.685  3.20965e+08
       44.542  3.33552e+08
      44.3991   3.4663e+08
      44.2561  3.60217e+08
      44.1132  3.74333e+08
      43.9702  3.88999e+08
      43.8273  4.04235e+08
      43.6843  4.20064e+08
      43.5413  4.36509e+08
      43.3984  4.53593e+08
      43.2554  4.71342e+08
      43.1125   4.8978e+08
      42.9695  5.08935e+08
      42.8266  5.28834e+08
      42.6836  5.49505e+08
      42.5407  5.70979e+08
      42.3977  5.93287e+08
      42.2547   6.1646e+08
      42.1118  6.40532e+08
      41.9688  6.65538e+08
      41.8259  6.91513e+08
      41.6829  7.18494e+08
        41.54  7.46522e+08
       41.397  7.75635e+08
      41.2541  8.05875e+08
      41.1111  8.37287e+08
      40.9681  8.69914e+08
      40.8252  9.03803e+08
      40.6822  9.39004e+08
      40.5393  9.75566e+08
      40.3963  1.01354e+09
      40.2534  1.05299e+09
      40.1104  1.09395e+09
      39.9675   1.1365e+09
      39.8245   1.1807e+09
      39.6815   1.2266e+09
      39.5386  1.27427e+09
      39.3956  1.32378e+09
      39.2527   1.3752e+09
      39.1097   1.4286e+09
      38.9668  1.48406e+09
      38.8238  1.54167e+09
      38.6809  1.60148e+09
      38.5379  1.66361e+09
      38.3949  1.72812e+09
       38.252  1.79512e+09
       38.109   1.8647e+09
      37.9661  1.93696e+09
      37.8231  2.01199e+09
      37.6802  2.08991e+09
      37.5372  2.17083e+09
      37.3943  2.25485e+09
      37.2513  2.34211e+09
      37.1083  2.43271e+09
      36.9654   2.5268e+09
      36.8224  2.62449e+09
      36.6795  2.72593e+09
      36.5365  2.83127e+09
      36.3936  2.94064e+09
      36.2506  3.05421e+09
      36.1077  3.17213e+09
      35.9647  3.29457e+09
      35.8218   3.4217e+09
      35.6788   3.5537e+09
      35.5358  3.69075e+09
      35.3929  3.83305e+09
      35.2499  3.98079e+09
       35.107  4.13418e+09
       34.964  4.29344e+09
      34.8211  4.45878e+09
      34.6781  4.63044e+09
      34.5352  4.80866e+09
      34.3922  4.99368e+09
      34.2492  5.18577e+09
      34.1063  5.38519e+09
      33.9633  5.59222e+09
      33.8204  5.80714e+09
      33.6774  6.03026e+09
      33.5345  6.26188e+09
      33.3915  6.50233e+09
      33.2486  6.75194e+09
      33.1056  7.01106e+09
      32.9626  7.28004e+09
      32.8197  7.55925e+09
      32.6767  7.84909e+09
      32.5338  8.14995e+09
      32.3908  8.46225e+09
      32.2479  8.78642e+09
      32.1049  9.12291e+09
       31.962  9.47218e+09
       31.819  9.83471e+09
       31.676   1.0211e+10
      31.5331  1.06016e+10
      31.3901   1.1007e+10
      31.2472  1.14277e+10
      31.1042  1.18645e+10
      30.9613  1.23177e+10
      30.8183  1.27882e+10
      30.6754  1.32764e+10
      30.5324  1.37832e+10
      30.3894  1.43091e+10
      30.2465  1.48549e+10
      30.1035  1.54214e+10
      29.9606  1.60093e+10
      29.8176  1.66194e+10
      29.6747  1.72526e+10
      29.5317  1.79096e+10
      29.3888  1.85915e+10
      29.2458  1.92992e+10
      29.1028  2.00335e+10
      28.9599  2.07955e+10
      28.8169  2.15863e+10
       28.674  2.24069e+10
       28.531  2.32584e+10
      28.3881   2.4142e+10
      28.2451  2.50589e+10
      28.1022  2.60102e+10
      27.9592  2.69974e+10
      27.8163  2.80218e+10
      27.6733  2.90846e+10
      27.5303  3.01874e+10
      27.3874  3.13317e+10
      27.2444  3.25189e+10
      27.1015  3.37507e+10
      26.9585  3.50288e+10
      26.8156  3.63548e+10
      26.6726  3.77306e+10
      26.5297   3.9158e+10
      26.3867  4.06389e+10
      26.2437  4.21753e+10
      26.1008  4.37692e+10
      25.9578  4.54229e+10
      25.8149  4.71384e+10
      25.6719  4.89182e+10
       25.529  5.07645e+10
       25.386  5.26799e+10
      25.2431  5.46669e+10
      25.1001  5.67281e+10
      24.9571  5.88664e+10
      24.8142  6.10845e+10
