Temperature = 1115.66K
THERMAL DISTRIBUTIONS:
  E, kcal/mol           W1
       102.17  1.80042e-05
      102.027  1.90548e-05
      101.884  2.01666e-05
      101.741  2.13431e-05
      101.598  2.25882e-05
      101.455  2.39058e-05
      101.312  2.53001e-05
      101.169  2.67757e-05
      101.027  2.83371e-05
      100.884  2.99894e-05
      100.741   3.1738e-05
      100.598  3.35883e-05
      100.455  3.55462e-05
      100.312  3.76182e-05
      100.169  3.98107e-05
      100.026  4.21307e-05
      99.8829  4.45857e-05
      99.7399  4.71836e-05
       99.597  4.99326e-05
       99.454  5.28414e-05
      99.3111  5.59194e-05
      99.1681  5.91764e-05
      99.0252  6.26228e-05
      98.8822  6.62695e-05
      98.7393  7.01282e-05
      98.5963  7.42113e-05
      98.4533  7.85316e-05
      98.3104   8.3103e-05
      98.1674  8.79401e-05
      98.0245  9.30582e-05
      97.8815  9.84737e-05
      97.7386  0.000104204
      97.5956  0.000110267
      97.4527  0.000116682
      97.3097  0.000123469
      97.1667  0.000130651
      97.0238   0.00013825
      96.8808   0.00014629
      96.7379  0.000154797
      96.5949  0.000163797
       96.452   0.00017332
       96.309  0.000183396
      96.1661  0.000194056
      96.0231  0.000205335
      95.8802  0.000217268
      95.7372  0.000229894
      95.5942  0.000243251
      95.4513  0.000257384
      95.3083  0.000272336
      95.1654  0.000288156
      95.0224  0.000304892
      94.8795  0.000322599
      94.7365  0.000341332
      94.5936  0.000361152
      94.4506   0.00038212
      94.3076  0.000404303
      94.1647  0.000427772
      94.0217    0.0004526
      93.8788  0.000478867
      93.7358  0.000506656
      93.5929  0.000536054
      93.4499  0.000567155
       93.307  0.000600057
       93.164  0.000634864
       93.021  0.000671686
      92.8781  0.000710641
      92.7351   0.00075185
      92.5922  0.000795445
      92.4492  0.000841563
      92.3063  0.000890349
      92.1633  0.000941959
      92.0204  0.000996555
      91.8774   0.00105431
      91.7344    0.0011154
      91.5915   0.00118003
      91.4485    0.0012484
      91.3056   0.00132072
      91.1626   0.00139722
      91.0197   0.00147815
      90.8767   0.00156375
      90.7338    0.0016543
      90.5908   0.00175008
      90.4478    0.0018514
      90.3049   0.00195858
      90.1619   0.00207195
       90.019   0.00219186
       89.876   0.00231871
      89.7331   0.00245288
      89.5901    0.0025948
      89.4472   0.00274491
      89.3042    0.0029037
      89.1612   0.00307165
      89.0183   0.00324929
      88.8753   0.00343719
      88.7324   0.00363594
      88.5894   0.00384616
      88.4465    0.0040685
      88.3035   0.00430368
      88.1606   0.00455242
      88.0176   0.00481551
      87.8747   0.00509378
      87.7317   0.00538809
      87.5887   0.00569938
      87.4458   0.00602862
      87.3028   0.00637683
      87.1599   0.00674513
      87.0169   0.00713465
       86.874   0.00754662
       86.731   0.00798233
      86.5881   0.00844315
      86.4451   0.00893052
      86.3021   0.00944597
      86.1592   0.00999111
      86.0162    0.0105676
      85.8733    0.0111774
      85.7303    0.0118222
      85.5874    0.0125042
      85.4444    0.0132255
      85.3015    0.0139882
      85.1585    0.0147949
      85.0155     0.015648
      84.8726    0.0165502
      84.7296    0.0175042
      84.5867    0.0185132
      84.4437    0.0195803
      84.3008    0.0207087
      84.1578     0.021902
      84.0149    0.0231639
      83.8719    0.0244983
      83.7289    0.0259096
       83.586    0.0274019
       83.443      0.02898
      83.3001    0.0306488
      83.1571    0.0324135
      83.0142    0.0342796
      82.8712    0.0362529
      82.7283    0.0383396
      82.5853    0.0405462
      82.4423    0.0428794
      82.2994    0.0453467
      82.1564    0.0479556
      82.0135    0.0507144
      81.8705    0.0536315
      81.7276     0.056716
      81.5846    0.0599776
      81.4417    0.0634263
      81.2987     0.067073
      81.1558    0.0709288
      81.0128    0.0750059
      80.8698    0.0793168
      80.7269    0.0838749
      80.5839    0.0886945
       80.441    0.0937904
       80.298    0.0991785
      80.1551     0.104875
      80.0121     0.110899
      79.8692     0.117268
      79.7262     0.124001
      79.5832     0.131121
      79.4403     0.138648
      79.2973     0.146607
      79.1544     0.155021
      79.0114     0.163918
      78.8685     0.173323
      78.7255     0.183268
      78.5826     0.193781
      78.4396     0.204897
      78.2966     0.216649
      78.1537     0.229073
      78.0107     0.242208
      77.8678     0.256095
      77.7248     0.270776
      77.5819     0.286297
      77.4389     0.302706
       77.296     0.320053
       77.153     0.338392
        77.01      0.35778
      76.8671     0.378276
      76.7241     0.399944
      76.5812     0.422849
      76.4382     0.447064
      76.2953     0.472663
      76.1523     0.499723
      76.0094      0.52833
      75.8664     0.558571
      75.7234     0.590539
      75.5805     0.624332
      75.4375     0.660054
      75.2946     0.697816
      75.1516     0.737734
      75.0087      0.77993
      74.8657     0.824533
      74.7228     0.871682
      74.5798     0.921521
      74.4368     0.974203
      74.2939      1.02989
      74.1509      1.08875
       74.008      1.15097
       73.865      1.21674
      73.7221      1.28625
      73.5791      1.35973
      73.4362       1.4374
      73.2932      1.51949
      73.1503      1.60626
      73.0073      1.69798
      72.8643      1.79492
      72.7214      1.89738
      72.5784      2.00567
      72.4355      2.12013
      72.2925      2.24111
      72.1496      2.36898
      72.0066      2.50412
      71.8637      2.64696
      71.7207      2.79792
      71.5777      2.95747
      71.4348       3.1261
      71.2918      3.30433
      71.1489      3.49269
      71.0059      3.69176
       70.863      3.90215
        70.72       4.1245
      70.5771      4.35949
      70.4341      4.60784
      70.2911      4.87031
      70.1482      5.14768
      70.0052      5.44082
      69.8623      5.75061
      69.7193      6.07799
      69.5764      6.42397
      69.4334       6.7896
      69.2905      7.17598
      69.1475       7.5843
      69.0045       8.0158
      68.8616      8.47179
      68.7186      8.95365
      68.5757      9.46286
      68.4327       10.001
      68.2898      10.5696
      68.1468      11.1704
      68.0039      11.8054
      67.8609      12.4763
      67.7179      13.1853
       67.575      13.9345
       67.432      14.7261
      67.2891      15.5626
      67.1461      16.4465
      67.0032      17.3804
      66.8602      18.3673
      66.7173      19.4101
      66.5743      20.5119
      66.4313      21.6761
      66.2884      22.9062
      66.1454       24.206
      66.0025      25.5793
      65.8595      27.0303
      65.7166      28.5634
      65.5736      30.1833
      65.4307      31.8948
      65.2877      33.7031
      65.1448      35.6137
      65.0018      37.6323
      64.8588       39.765
      64.7159      42.0183
      64.5729      44.3989
        64.43       46.914
       64.287      49.5713
      64.1441      52.3787
      64.0011      55.3447
      63.8582      58.4782
      63.7152      61.7886
      63.5722       65.286
      63.4293      68.9808
      63.2863      72.8841
      63.1434      77.0078
      63.0004      81.3641
      62.8575      85.9662
      62.7145       90.828
      62.5716       95.964
      62.4286       101.39
      62.2856      107.121
      62.1427      113.176
      61.9997      119.572
      61.8568      126.329
      61.7138      133.466
      61.5709      141.005
      61.4279       148.97
       61.285      157.382
       61.142      166.269
       60.999      175.656
      60.8561      185.572
      60.7131      196.046
      60.5702      207.109
      60.4272      218.795
      60.2843      231.139
      60.1413      244.177
      59.9984      257.949
      59.8554      272.495
      59.7124       287.86
      59.5695      304.088
      59.4265      321.228
      59.2836      339.332
      59.1406      358.454
      58.9977       378.65
      58.8547      399.981
      58.7118       422.51
      58.5688      446.305
      58.4259      471.435
      58.2829      497.977
      58.1399       526.01
       57.997      555.615
       57.854      586.883
      57.7111      619.905
      57.5681      654.779
      57.4252      691.611
      57.2822      730.508
      57.1393      771.586
      56.9963      814.968
      56.8533      860.782
      56.7104      909.164
      56.5674      960.258
      56.4245      1014.22
      56.2815       1071.2
      56.1386      1131.37
      55.9956      1194.91
      55.8527      1262.01
      55.7097      1332.87
      55.5667      1407.69
      55.4238      1486.71
      55.2808      1570.14
      55.1379      1658.25
      54.9949      1751.28
       54.852      1849.52
       54.709      1953.25
      54.5661      2062.78
      54.4231      2178.44
      54.2801      2300.56
      54.1372      2429.51
      53.9942      2565.67
      53.8513      2709.43
      53.7083      2861.23
      53.5654       3021.5
      53.4224      3190.72
      53.2795       3369.4
      53.1365      3558.05
      52.9935      3757.23
      52.8506      3967.52
      52.7076      4189.55
      52.5647      4423.97
      52.4217      4671.47
      52.2788      4932.76
      52.1358      5208.64
      51.9929      5499.89
      51.8499      5807.37
      51.7069         6132
       51.564      6474.72
       51.421      6836.53
      51.2781       7218.5
      51.1351      7621.74
      50.9922      8047.44
      50.8492      8496.85
      50.7063      8971.27
      50.5633       9472.1
      50.4204      10000.8
      50.2774      10558.9
      50.1344      11148.1
      49.9915        11770
      49.8485      12426.6
      49.7056      13119.6
      49.5626      13851.1
      49.4197      14623.4
      49.2767      15438.5
      49.1338        16299
      48.9908      17207.2
      48.8478      18165.9
      48.7049      19177.8
      48.5619      20245.9
       48.419      21373.3
       48.276      22563.3
      48.1331      23819.4
      47.9901      25145.1
      47.8472      26544.4
      47.7042      28021.3
      47.5612      29580.1
      47.4183      31225.3
      47.2753      32961.8
      47.1324      34794.4
      46.9894      36728.7
      46.8465      38770.1
      46.7035      40924.6
      46.5606      43198.5
      46.4176      45598.3
      46.2746      48130.9
      46.1317      50803.8
      45.9887      53624.5
      45.8458      56601.4
      45.7028        59743
      45.5599      63058.4
      45.4169      66557.1
       45.274      70249.3
       45.131      74145.7
       44.988      78257.4
      44.8451      82596.4
      44.7021      87175.1
      44.5592      92006.7
      44.4162      97105.3
      44.2733       102485
      44.1303       108163
      43.9874       114153
      43.8444       120475
      43.7014       127145
      43.5585       134183
      43.4155       141609
      43.2726       149445
      43.1296       157713
      42.9867       166437
      42.8437       175642
      42.7008       185354
      42.5578       195601
      42.4149       206413
      42.2719       217820
      42.1289       229855
       41.986       242554
       41.843       255951
      41.7001       270085
      41.5571       284997
      41.4142       300730
      41.2712       317328
      41.1283       334839
      40.9853       353312
      40.8423       372801
      40.6994       393362
      40.5564       415052
      40.4135       437934
      40.2705       462072
      40.1276       487537
      39.9846       514399
      39.8417       542737
      39.6987       572629
      39.5557       604162
      39.4128       637426
      39.2698       672513
      39.1269       709525
      38.9839       748567
       38.841       789748
       38.698       833187
      38.5551       879006
      38.4121       927336
      38.2691       978312
      38.1262  1.03208e+06
      37.9832  1.08879e+06
      37.8403  1.14861e+06
      37.6973   1.2117e+06
      37.5544  1.27824e+06
      37.4114  1.34843e+06
      37.2685  1.42245e+06
      37.1255  1.50052e+06
      36.9825  1.58286e+06
      36.8396   1.6697e+06
      36.6966  1.76129e+06
      36.5537  1.85788e+06
      36.4107  1.95975e+06
      36.2678  2.06718e+06
      36.1248  2.18047e+06
      35.9819  2.29996e+06
      35.8389  2.42596e+06
       35.696  2.55884e+06
       35.553  2.69897e+06
        35.41  2.84675e+06
      35.2671  3.00258e+06
      35.1241  3.16692e+06
      34.9812  3.34021e+06
      34.8382  3.52294e+06
      34.6953  3.71563e+06
      34.5523  3.91882e+06
      34.4094  4.13308e+06
      34.2664    4.359e+06
      34.1234  4.59723e+06
      33.9805  4.84842e+06
      33.8375  5.11328e+06
      33.6946  5.39255e+06
      33.5516  5.68702e+06
      33.4087  5.99749e+06
      33.2657  6.32485e+06
      33.1228  6.67001e+06
      32.9798  7.03392e+06
      32.8368  7.41761e+06
      32.6939  7.82214e+06
      32.5509  8.24864e+06
       32.408   8.6983e+06
       32.265  9.17237e+06
      32.1221  9.67217e+06
      31.9791  1.01991e+07
      31.8362  1.07546e+07
      31.6932  1.13403e+07
      31.5502  1.19577e+07
      31.4073  1.26085e+07
      31.2643  1.32947e+07
      31.1214   1.4018e+07
      30.9784  1.47805e+07
      30.8355  1.55844e+07
      30.6925  1.64317e+07
      30.5496   1.7325e+07
      30.4066  1.82666e+07
      30.2636  1.92591e+07
      30.1207  2.03053e+07
      29.9777  2.14082e+07
      29.8348  2.25707e+07
      29.6918   2.3796e+07
      29.5489  2.50875e+07
      29.4059  2.64489e+07
       29.263  2.78838e+07
        29.12  2.93962e+07
       28.977  3.09903e+07
      28.8341  3.26705e+07
      28.6911  3.44413e+07
      28.5482  3.63078e+07
      28.4052  3.82749e+07
      28.2623  4.03481e+07
      28.1193  4.25331e+07
      27.9764   4.4836e+07
      27.8334  4.72629e+07
      27.6905  4.98207e+07
      27.5475  5.25162e+07
      27.4045  5.53569e+07
      27.2616  5.83507e+07
      27.1186  6.15055e+07
      26.9757  6.48302e+07
      26.8327  6.83338e+07
      26.6898  7.20259e+07
      26.5468  7.59165e+07
      26.4039  8.00164e+07
      26.2609  8.43366e+07
      26.1179  8.88891e+07
       25.975  9.36861e+07
       25.832  9.87409e+07
      25.6891  1.04067e+08
      25.5461  1.09679e+08
      25.4032  1.15593e+08
      25.2602  1.21823e+08
      25.1173  1.28388e+08
      24.9743  1.35306e+08
      24.8313  1.42594e+08
      24.6884  1.50273e+08
      24.5454  1.58363e+08
      24.4025  1.66887e+08
      24.2595  1.75868e+08
      24.1166  1.85329e+08
      23.9736  1.95297e+08
      23.8307  2.05799e+08
      23.6877  2.16863e+08
      23.5447  2.28518e+08
      23.4018  2.40798e+08
      23.2588  2.53733e+08
      23.1159  2.67361e+08
      22.9729  2.81716e+08
        22.83  2.96839e+08
       22.687   3.1277e+08
      22.5441  3.29551e+08
      22.4011  3.47228e+08
      22.2581  3.65849e+08
      22.1152  3.85464e+08
      21.9722  4.06125e+08
      21.8293  4.27888e+08
      21.6863  4.50811e+08
      21.5434  4.74957e+08
      21.4004  5.00389e+08
      21.2575  5.27176e+08
      21.1145   5.5539e+08
      20.9715  5.85107e+08
      20.8286  6.16405e+08
      20.6856  6.49369e+08
      20.5427  6.84087e+08
      20.3997  7.20652e+08
      20.2568  7.59161e+08
      20.1138  7.99718e+08
      19.9709   8.4243e+08
      19.8279  8.87411e+08
       19.685  9.34782e+08
       19.542  9.84669e+08
       19.399   1.0372e+09
      19.2561  1.09253e+09
      19.1131  1.15079e+09
      18.9702  1.21214e+09
      18.8272  1.27674e+09
      18.6843  1.34477e+09
      18.5413   1.4164e+09
      18.3984  1.49183e+09
      18.2554  1.57126e+09
      18.1124  1.65489e+09
      17.9695  1.74295e+09
      17.8265  1.83567e+09
      17.6836   1.9333e+09
      17.5406  2.03609e+09
      17.3977  2.14432e+09
      17.2547  2.25826e+09
      17.1118  2.37824e+09
      16.9688  2.50455e+09
      16.8258  2.63753e+09
      16.6829  2.77753e+09
      16.5399  2.92493e+09
       16.397   3.0801e+09
       16.254  3.24347e+09
      16.1111  3.41544e+09
      15.9681  3.59649e+09
      15.8252  3.78708e+09
      15.6822  3.98772e+09
      15.5392  4.19892e+09
      15.3963  4.42125e+09
      15.2533  4.65529e+09
      15.1104  4.90164e+09
      14.9674  5.16096e+09
      14.8245  5.43392e+09
      14.6815  5.72124e+09
      14.5386  6.02366e+09
      14.3956  6.34197e+09
      14.2526  6.67701e+09
      14.1097  7.02965e+09
      13.9667  7.40081e+09
      13.8238  7.79145e+09
      13.6808  8.20259e+09
      13.5379   8.6353e+09
      13.3949  9.09071e+09
       13.252  9.56999e+09
       13.109  1.00744e+10
       12.966  1.06052e+10
      12.8231  1.11639e+10
      12.6801  1.17518e+10
      12.5372  1.23704e+10
      12.3942  1.30215e+10
      12.2513  1.37066e+10
      12.1083  1.44275e+10
      11.9654  1.51862e+10
      11.8224  1.59844e+10
      11.6795  1.68244e+10
      11.5365  1.77083e+10
      11.3935  1.86383e+10
      11.2506  1.96169e+10
      11.1076  2.06465e+10
      10.9647  2.17299e+10
      10.8217  2.28697e+10
      10.6788   2.4069e+10
      10.5358  2.53308e+10
      10.3929  2.66583e+10
      10.2499  2.80549e+10
      10.1069  2.95243e+10
      9.96399  3.10702e+10
      9.82103  3.26965e+10
      9.67808  3.44074e+10
      9.53512  3.62072e+10
      9.39217  3.81006e+10
      9.24921  4.00924e+10
      9.10626  4.21877e+10
       8.9633  4.43918e+10
      8.82034  4.67102e+10
      8.67739   4.9149e+10
      8.53443  5.17143e+10
      8.39148  5.44127e+10
      8.24852  5.72509e+10
      8.10557  6.02362e+10
      7.96261  6.33762e+10
      7.81966  6.66788e+10
       7.6767  7.01524e+10
      7.53375  7.38057e+10
      7.39079  7.76481e+10
      7.24784  8.16891e+10
      7.10488  8.59391e+10
      6.96193  9.04088e+10
      6.81897  9.51093e+10
      6.67601  1.00053e+11
      6.53306  1.05251e+11
       6.3901  1.10718e+11
      6.24715  1.16467e+11
      6.10419  1.22512e+11
      5.96124  1.28869e+11
      5.81828  1.35554e+11
      5.67533  1.42583e+11
      5.53237  1.49974e+11
      5.38942  1.57746e+11
      5.24646  1.65917e+11
      5.10351  1.74509e+11
      4.96055  1.83543e+11
       4.8176  1.93041e+11
      4.67464  2.03028e+11
      4.53168  2.13527e+11
      4.38873  2.24565e+11
      4.24577   2.3617e+11
      4.10282  2.48371e+11
      3.95986  2.61197e+11
      3.81691  2.74682e+11
      3.67395  2.88857e+11
        3.531  3.03758e+11
      3.38804  3.19423e+11
      3.24509   3.3589e+11
      3.10213    3.532e+11
      2.95918  3.71395e+11
      2.81622  3.90521e+11
      2.67326  4.10624e+11
      2.53031  4.31755e+11
      2.38735  4.53965e+11
       2.2444   4.7731e+11
      2.10144  5.01846e+11
      1.95849  5.27634e+11
      1.81553  5.54738e+11
      1.67258  5.83223e+11
      1.52962   6.1316e+11
      1.38667  6.44623e+11
      1.24371  6.77688e+11
      1.10076  7.12436e+11
     0.957801  7.48953e+11
     0.814845  7.87326e+11
      0.67189  8.27652e+11
     0.528935  8.70026e+11
     0.385979  9.14554e+11
     0.243024  9.61343e+11
     0.100069  1.01051e+12
   -0.0428866  1.06217e+12
    -0.185842  1.11645e+12
    -0.328797  1.17348e+12
    -0.471753   1.2334e+12
    -0.614708  1.29636e+12
    -0.757663   1.3625e+12
    -0.900619    1.432e+12
     -1.04357  1.50501e+12
     -1.18653  1.58171e+12
     -1.32948   1.6623e+12
     -1.47244  1.74695e+12
      -1.6154  1.83588e+12
     -1.75835  1.92931e+12
     -1.90131  2.02745e+12
     -2.04426  2.13054e+12
     -2.18722  2.23883e+12
     -2.33017  2.35258e+12
     -2.47313  2.47206e+12
     -2.61608  2.59756e+12
     -2.75904  2.72938e+12
     -2.90199  2.86783e+12
     -3.04495  3.01325e+12
      -3.1879  3.16598e+12
