Temperature = 774.101K
THERMAL DISTRIBUTIONS:
  E, kcal/mol           W1
      75.0201   2.9234e-10
      74.8772  3.17979e-10
      74.7342  3.45863e-10
      74.5912   3.7619e-10
      74.4483  4.09174e-10
      74.3053  4.45046e-10
      74.1624  4.84061e-10
      74.0194  5.26492e-10
      73.8765  5.72638e-10
      73.7335  6.22825e-10
      73.5906  6.77406e-10
      73.4476  7.36766e-10
      73.3046  8.01321e-10
      73.1617  8.71527e-10
      73.0187  9.47877e-10
      72.8758  1.03091e-09
      72.7328  1.12121e-09
      72.5899  1.21941e-09
      72.4469   1.3262e-09
       72.304  1.44233e-09
       72.161  1.56862e-09
       72.018  1.70596e-09
      71.8751  1.85531e-09
      71.7321  2.01772e-09
      71.5892  2.19434e-09
      71.4462  2.38639e-09
      71.3033  2.59524e-09
      71.1603  2.82235e-09
      71.0174  3.06931e-09
      70.8744  3.33785e-09
      70.7314  3.62987e-09
      70.5885  3.94741e-09
      70.4455  4.29269e-09
      70.3026  4.66815e-09
      70.1596  5.07641e-09
      70.0167  5.52033e-09
      69.8737  6.00303e-09
      69.7308   6.5279e-09
      69.5878  7.09861e-09
      69.4448  7.71916e-09
      69.3019  8.39389e-09
      69.1589  9.12754e-09
       69.016  9.92525e-09
       68.873  1.07926e-08
      68.7301  1.17356e-08
      68.5871   1.2761e-08
      68.4442  1.38759e-08
      68.3012   1.5088e-08
      68.1583   1.6406e-08
      68.0153  1.78389e-08
      67.8723  1.93968e-08
      67.7294  2.10907e-08
      67.5864  2.29323e-08
      67.4435  2.49345e-08
      67.3005  2.71113e-08
      67.1576   2.9478e-08
      67.0146   3.2051e-08
      66.8717  3.48484e-08
      66.7287  3.78897e-08
      66.5857  4.11961e-08
      66.4428  4.47906e-08
      66.2998  4.86985e-08
      66.1569   5.2947e-08
      66.0139  5.75656e-08
       65.871  6.25867e-08
       65.728  6.80453e-08
      65.5851  7.39793e-08
      65.4421  8.04303e-08
      65.2991  8.74432e-08
      65.1562  9.50669e-08
      65.0132  1.03354e-07
      64.8703  1.12364e-07
      64.7273  1.22157e-07
      64.5844  1.32803e-07
      64.4414  1.44376e-07
      64.2985  1.56957e-07
      64.1555  1.70632e-07
      64.0125  1.85498e-07
      63.8696  2.01657e-07
      63.7266  2.19222e-07
      63.5837  2.38315e-07
      63.4407  2.59069e-07
      63.2978  2.81628e-07
      63.1548   3.0615e-07
      63.0119  3.32804e-07
      62.8689  3.61776e-07
      62.7259  3.93268e-07
       62.583  4.27497e-07
        62.44  4.64702e-07
      62.2971  5.05141e-07
      62.1541  5.49095e-07
      62.0112  5.96869e-07
      61.8682  6.48795e-07
      61.7253  7.05232e-07
      61.5823  7.66574e-07
      61.4393  8.33244e-07
      61.2964  9.05706e-07
      61.1534  9.84461e-07
      61.0105  1.07006e-06
      60.8675  1.16309e-06
      60.7246  1.26419e-06
      60.5816  1.37408e-06
      60.4387   1.4935e-06
      60.2957   1.6233e-06
      60.1528  1.76436e-06
      60.0098  1.91766e-06
      59.8668  2.08426e-06
      59.7239  2.26532e-06
      59.5809  2.46209e-06
       59.438  2.67594e-06
       59.295  2.90833e-06
      59.1521  3.16088e-06
      59.0091  3.43533e-06
      58.8662  3.73359e-06
      58.7232   4.0577e-06
      58.5802  4.40992e-06
      58.4373  4.79268e-06
      58.2943  5.20861e-06
      58.1514  5.66059e-06
      58.0084  6.15175e-06
      57.8655  6.68547e-06
      57.7225  7.26544e-06
      57.5796  7.89566e-06
      57.4366  8.58047e-06
      57.2936  9.32461e-06
      57.1507  1.01332e-05
      57.0077  1.10118e-05
      56.8648  1.19665e-05
      56.7218  1.30039e-05
      56.5789  1.41311e-05
      56.4359  1.53558e-05
       56.293  1.66866e-05
        56.15  1.81326e-05
       56.007  1.97037e-05
      55.8641  2.14107e-05
      55.7211  2.32655e-05
      55.5782  2.52807e-05
      55.4352  2.74703e-05
      55.2923  2.98492e-05
      55.1493  3.24339e-05
      55.0064  3.52421e-05
      54.8634  3.82932e-05
      54.7204   4.1608e-05
      54.5775  4.52094e-05
      54.4345  4.91221e-05
      54.2916   5.3373e-05
      54.1486  5.79913e-05
      54.0057  6.30087e-05
      53.8627  6.84596e-05
      53.7198  7.43814e-05
      53.5768  8.08149e-05
      53.4338   8.7804e-05
      53.2909  9.53967e-05
      53.1479  0.000103645
       53.005  0.000112606
       52.862   0.00012234
      52.7191  0.000132915
      52.5761  0.000144403
      52.4332  0.000156882
      52.2902  0.000170438
      52.1473  0.000185163
      52.0043   0.00020116
      51.8613  0.000218536
      51.7184  0.000237412
      51.5754  0.000257915
      51.4325  0.000280187
      51.2895   0.00030438
      51.1466  0.000330658
      51.0036  0.000359203
      50.8607  0.000390207
      50.7177  0.000423885
      50.5747  0.000460465
      50.4318  0.000500197
      50.2888  0.000543353
      50.1459  0.000590228
      50.0029   0.00064114
        49.86  0.000696438
       49.717  0.000756499
      49.5741  0.000821732
      49.4311  0.000892582
      49.2881  0.000969533
      49.1452   0.00105311
      49.0022   0.00114388
      48.8593   0.00124246
      48.7163   0.00134953
      48.5734    0.0014658
      48.4304   0.00159209
      48.2875   0.00172924
      48.1445   0.00187818
      48.0015   0.00203994
      47.8586   0.00221561
      47.7156   0.00240638
      47.5727   0.00261356
      47.4297   0.00283854
      47.2868   0.00308287
      47.1438    0.0033482
      47.0009   0.00363633
      46.8579   0.00394922
      46.7149   0.00428899
       46.572   0.00465795
       46.429   0.00505861
      46.2861   0.00549368
      46.1431   0.00596611
      46.0002   0.00647911
      45.8572   0.00703615
      45.7143   0.00764102
      45.5713   0.00829781
      45.4284   0.00901097
      45.2854   0.00978533
      45.1424    0.0106261
      44.9995    0.0115391
      44.8565    0.0125303
      44.7136    0.0136066
      44.5706    0.0147752
      44.4277     0.016044
      44.2847    0.0174217
      44.1418    0.0189174
      43.9988    0.0205413
      43.8558    0.0223044
      43.7129    0.0242187
      43.5699     0.026297
       43.427    0.0285533
       43.284    0.0310029
      43.1411    0.0336624
      42.9981    0.0365497
      42.8552    0.0396842
      42.7122    0.0430872
      42.5692    0.0467815
      42.4263    0.0507921
      42.2833    0.0551459
      42.1404    0.0598724
      41.9974    0.0650034
      41.8545    0.0705733
      41.7115    0.0766199
      41.5686    0.0831836
      41.4256    0.0903088
      41.2826    0.0980433
      41.1397     0.106439
      40.9967     0.115553
      40.8538     0.125446
      40.7108     0.136184
      40.5679     0.147841
      40.4249     0.160493
       40.282     0.174226
       40.139     0.189133
       39.996     0.205313
      39.8531     0.222875
      39.7101     0.241937
      39.5672     0.262627
      39.4242     0.285083
      39.2813     0.309456
      39.1383      0.33591
      38.9954     0.364621
      38.8524     0.395782
      38.7094     0.429602
      38.5665     0.466307
      38.4235     0.506143
      38.2806     0.549377
      38.1376     0.596297
      37.9947     0.647218
      37.8517     0.702481
      37.7088     0.762454
      37.5658     0.827539
      37.4229      0.89817
      37.2799      0.97482
      37.1369        1.058
       36.994      1.14827
       36.851      1.24622
      36.7081      1.35252
      36.5651      1.46786
      36.4222      1.59303
      36.2792      1.72886
      36.1363      1.87624
      35.9933      2.03617
      35.8503      2.20971
      35.7074      2.39801
      35.5644      2.60233
      35.4215      2.82403
      35.2785      3.06458
      35.1356      3.32559
      34.9926      3.60879
      34.8497      3.91607
      34.7067      4.24946
      34.5637      4.61119
      34.4208      5.00366
      34.2778      5.42947
      34.1349      5.89145
      33.9919      6.39268
       33.849      6.93647
       33.706      7.52644
      33.5631      8.16651
      33.4201       8.8609
      33.2771      9.61424
      33.1342      10.4315
      32.9912      11.3181
      32.8483        12.28
      32.7053      13.3234
      32.5624      14.4553
      32.4194      15.6833
      32.2765      17.0153
      32.1335      18.4603
      31.9905      20.0278
      31.8476      21.7282
      31.7046      23.5726
      31.5617      25.5733
      31.4187      27.7435
      31.2758      30.0976
      31.1328       32.651
      30.9899      35.4207
      30.8469      38.4248
      30.7039      41.6833
       30.561      45.2176
       30.418      49.0511
      30.2751      53.2089
      30.1321      57.7185
      29.9892      62.6095
      29.8462      67.9143
      29.7033      73.6677
      29.5603      79.9076
      29.4174       86.675
      29.2744      94.0145
      29.1314      101.974
      28.9885      110.607
      28.8455      119.969
      28.7026      130.121
      28.5596      141.132
      28.4167      153.072
      28.2737       166.02
      28.1308      180.062
      27.9878      195.289
      27.8448      211.801
      27.7019      229.706
      27.5589      249.122
       27.416      270.177
       27.273      293.007
      27.1301      317.763
      26.9871      344.606
      26.8442      373.712
      26.7012      405.272
      26.5582      439.491
      26.4153      476.595
      26.2723      516.824
      26.1294      560.443
      25.9864      607.736
      25.8435      659.011
      25.7005      714.604
      25.5576      774.878
      25.4146      840.225
      25.2716      911.072
      25.1287       987.88
      24.9857      1071.15
      24.8428      1161.43
      24.6998      1259.29
      24.5569      1365.39
      24.4139      1480.41
       24.271       1605.1
       24.128      1740.27
       23.985       1886.8
      23.8421      2045.64
      23.6991      2217.82
      23.5562      2404.47
      23.4132       2606.8
      23.2703      2826.11
      23.1273      3063.83
      22.9844      3321.52
      22.8414      3600.82
      22.6984      3903.57
      22.5555      4231.71
      22.4125      4587.38
      22.2696      4972.89
      22.1266      5390.72
      21.9837      5843.58
      21.8407       6334.4
      21.6978      6866.36
      21.5548      7442.91
      21.4119      8067.75
      21.2689      8744.94
      21.1259      9478.85
       20.983      10274.2
        20.84      11136.2
      20.6971      12070.3
      20.5541      13082.6
      20.4112      14179.6
      20.2682      15368.5
      20.1253      16656.7
      19.9823      18052.7
      19.8393      19565.5
      19.6964      21204.7
      19.5534        22981
      19.4105      24905.7
      19.2675      26991.3
      19.1246      29251.1
      18.9816      31699.7
      18.8387      34352.9
      18.6957      37227.6
      18.5527      40342.3
      18.4098        43717
      18.2668      47373.3
      18.1239      51334.8
      17.9809      55626.8
       17.838      60276.9
       17.695      65314.7
      17.5521      70772.6
      17.4091      76685.6
      17.2661      83091.5
      17.1232      90031.2
      16.9802      97549.1
      16.8373       105693
      16.6943       114516
      16.5514       124074
      16.4084       134427
      16.2655       145642
      16.1225       157790
      15.9795       170950
      15.8366       185204
      15.6936       200644
      15.5507       217369
      15.4077       235484
      15.2648       255105
      15.1218       276357
      14.9789       299375
      14.8359       324306
       14.693       351308
        14.55       380552
       14.407       412226
      14.2641       446529
      14.1211       483679
      13.9782       523913
      13.8352       567486
      13.6923       614673
      13.5493       665775
      13.4064       721114
      13.2634       781042
      13.1204       845937
      12.9775       916211
      12.8345       992309
      12.6916  1.07471e+06
      12.5486  1.16394e+06
      12.4057  1.26055e+06
      12.2627  1.36517e+06
      12.1198  1.47845e+06
      11.9768   1.6011e+06
      11.8338   1.7339e+06
      11.6909  1.87769e+06
      11.5479  2.03337e+06
       11.405  2.20193e+06
       11.262  2.38442e+06
      11.1191    2.582e+06
      10.9761  2.79591e+06
      10.8332   3.0275e+06
      10.6902  3.27822e+06
      10.5472  3.54964e+06
      10.4043  3.84348e+06
      10.2613  4.16158e+06
      10.1184  4.50594e+06
      9.97542  4.87872e+06
      9.83247  5.28226e+06
      9.68951  5.71909e+06
      9.54656  6.19194e+06
       9.4036  6.70379e+06
      9.26065  7.25783e+06
      9.11769  7.85755e+06
      8.97474  8.50668e+06
      8.83178  9.20929e+06
      8.68883  9.96978e+06
      8.54587  1.07929e+07
      8.40292  1.16838e+07
      8.25996   1.2648e+07
        8.117  1.36916e+07
      7.97405  1.48211e+07
      7.83109  1.60435e+07
      7.68814  1.73664e+07
      7.54518  1.87981e+07
      7.40223  2.03475e+07
      7.25927  2.20242e+07
      7.11632  2.38388e+07
      6.97336  2.58024e+07
      6.83041  2.79273e+07
      6.68745  3.02267e+07
       6.5445  3.27149e+07
      6.40154  3.54074e+07
      6.25859  3.83208e+07
      6.11563  4.14733e+07
      5.97267  4.48843e+07
      5.82972  4.85751e+07
      5.68676  5.25686e+07
      5.54381  5.68894e+07
      5.40085  6.15643e+07
       5.2579  6.66223e+07
      5.11494  7.20946e+07
      4.97199  7.80152e+07
      4.82903  8.44205e+07
      4.68608  9.13501e+07
      4.54312   9.8847e+07
      4.40017  1.06957e+08
      4.25721  1.15731e+08
      4.11425  1.25222e+08
       3.9713   1.3549e+08
      3.82834  1.46596e+08
      3.68539  1.58611e+08
      3.54243  1.71607e+08
      3.39948  1.85665e+08
      3.25652  2.00871e+08
      3.11357  2.17318e+08
      2.97061  2.35109e+08
      2.82766  2.54351e+08
       2.6847  2.75163e+08
      2.54175  2.97673e+08
      2.39879  3.22019e+08
      2.25584   3.4835e+08
      2.11288  3.76828e+08
      1.96992  4.07626e+08
      1.82697  4.40933e+08
      1.68401  4.76954e+08
      1.54106  5.15909e+08
       1.3981  5.58035e+08
      1.25515  6.03589e+08
      1.11219  6.52851e+08
     0.969237  7.06121e+08
     0.826282  7.63724e+08
     0.683327  8.26011e+08
     0.540371  8.93362e+08
     0.397416  9.66186e+08
     0.254461  1.04493e+09
     0.111505  1.13007e+09
   -0.0314502  1.22212e+09
    -0.174406  1.32165e+09
    -0.317361  1.42925e+09
    -0.460316  1.54559e+09
    -0.603272  1.67137e+09
    -0.746227  1.80735e+09
    -0.889182  1.95436e+09
     -1.03214  2.11328e+09
     -1.17509  2.28509e+09
     -1.31805  2.47081e+09
       -1.461  2.67158e+09
     -1.60396  2.88861e+09
     -1.74691  3.12322e+09
     -1.88987  3.37681e+09
     -2.03283  3.65093e+09
     -2.17578  3.94722e+09
     -2.31874  4.26748e+09
     -2.46169  4.61363e+09
     -2.60465  4.98777e+09
      -2.7476  5.39214e+09
     -2.89056  5.82918e+09
     -3.03351  6.30153e+09
     -3.17647  6.81202e+09
     -3.31942  7.36372e+09
     -3.46238  7.95995e+09
     -3.60533  8.60428e+09
     -3.74829   9.3006e+09
     -3.89124  1.00531e+10
      -4.0342  1.08662e+10
     -4.17716  1.17448e+10
     -4.32011  1.26943e+10
     -4.46307  1.37202e+10
     -4.60602  1.48288e+10
     -4.74898  1.60266e+10
     -4.89193  1.73208e+10
     -5.03489  1.87192e+10
     -5.17784    2.023e+10
      -5.3208  2.18624e+10
     -5.46375  2.36259e+10
     -5.60671  2.55313e+10
     -5.74966  2.75897e+10
     -5.89262  2.98134e+10
     -6.03557  3.22158e+10
     -6.17853   3.4811e+10
     -6.32149  3.76145e+10
     -6.46444  4.06429e+10
      -6.6074  4.39143e+10
     -6.75035   4.7448e+10
     -6.89331  5.12651e+10
     -7.03626   5.5388e+10
     -7.17922  5.98412e+10
     -7.32217  6.46512e+10
     -7.46513  6.98463e+10
     -7.60808  7.54573e+10
     -7.75104  8.15173e+10
     -7.89399  8.80621e+10
     -8.03695  9.51304e+10
      -8.1799  1.02764e+11
     -8.32286  1.11007e+11
     -8.46582  1.19909e+11
     -8.60877  1.29523e+11
     -8.75173  1.39904e+11
     -8.89468  1.51114e+11
     -9.03764  1.63218e+11
     -9.18059  1.76288e+11
     -9.32355  1.90401e+11
      -9.4665  2.05639e+11
     -9.60946  2.22091e+11
     -9.75241  2.39855e+11
     -9.89537  2.59034e+11
     -10.0383  2.79739e+11
     -10.1813  3.02094e+11
     -10.3242  3.26227e+11
     -10.4672  3.52281e+11
     -10.6101  3.80407e+11
     -10.7531   4.1077e+11
     -10.8961  4.43546e+11
      -11.039  4.78926e+11
      -11.182  5.17118e+11
     -11.3249  5.58342e+11
     -11.4679  6.02838e+11
     -11.6108  6.50866e+11
     -11.7538  7.02705e+11
     -11.8967  7.58654e+11
     -12.0397   8.1904e+11
     -12.1827  8.84212e+11
     -12.3256  9.54547e+11
     -12.4686  1.03045e+12
     -12.6115  1.11237e+12
     -12.7545  1.20077e+12
     -12.8974  1.29616e+12
     -13.0404   1.3991e+12
     -13.1833  1.51018e+12
     -13.3263  1.63004e+12
     -13.4693  1.75937e+12
     -13.6122  1.89892e+12
     -13.7552  2.04949e+12
     -13.8981  2.21194e+12
     -14.0411  2.38721e+12
      -14.184  2.57631e+12
      -14.327  2.78032e+12
     -14.4699  3.00041e+12
     -14.6129  3.23785e+12
     -14.7559  3.49399e+12
     -14.8988   3.7703e+12
     -15.0418  4.06837e+12
     -15.1847  4.38989e+12
     -15.3277  4.73671e+12
     -15.4706  5.11081e+12
     -15.6136  5.51431e+12
     -15.7565  5.94952e+12
     -15.8995  6.41892e+12
     -16.0424  6.92519e+12
     -16.1854  7.47119e+12
     -16.3284  8.06004e+12
     -16.4713  8.69509e+12
     -16.6143  9.37993e+12
     -16.7572  1.01184e+13
     -16.9002  1.09148e+13
     -17.0431  1.17736e+13
     -17.1861  1.26996e+13
      -17.329  1.36981e+13
      -17.472  1.47746e+13
      -17.615  1.59354e+13
     -17.7579   1.7187e+13
     -17.9009  1.85364e+13
     -18.0438  1.99911e+13
     -18.1868  2.15595e+13
     -18.3297  2.32503e+13
     -18.4727  2.50731e+13
     -18.6156   2.7038e+13
     -18.7586  2.91562e+13
     -18.9016  3.14394e+13
     -19.0445  3.39006e+13
     -19.1875  3.65535e+13
     -19.3304  3.94129e+13
     -19.4734  4.24949e+13
     -19.6163  4.58167e+13
     -19.7593  4.93968e+13
     -19.9022  5.32552e+13
     -20.0452  5.74134e+13
     -20.1882  6.18945e+13
     -20.3311  6.67237e+13
     -20.4741  7.19277e+13
      -20.617  7.75354e+13
       -20.76  8.35779e+13
     -20.9029  9.00889e+13
     -21.0459  9.71043e+13
     -21.1888  1.04663e+14
     -21.3318  1.12807e+14
     -21.4748  1.21581e+14
     -21.6177  1.31034e+14
     -21.7607  1.41218e+14
     -21.9036  1.52188e+14
     -22.0466  1.64007e+14
     -22.1895  1.76738e+14
     -22.3325  1.90452e+14
     -22.4754  2.05225e+14
     -22.6184  2.21136e+14
     -22.7614  2.38275e+14
     -22.9043  2.56734e+14
     -23.0473  2.76615e+14
     -23.1902  2.98026e+14
     -23.3332  3.21087e+14
     -23.4761  3.45921e+14
     -23.6191  3.72665e+14
      -23.762  4.01465e+14
      -23.905  4.32478e+14
     -24.0479  4.65874e+14
     -24.1909  5.01833e+14
     -24.3339   5.4055e+14
     -24.4768  5.82238e+14
     -24.6198  6.27123e+14
     -24.7627  6.75447e+14
     -24.9057  7.27472e+14
     -25.0486   7.8348e+14
     -25.1916  8.43775e+14
     -25.3345  9.08682e+14
     -25.4775  9.78549e+14
     -25.6205  1.05375e+15
     -25.7634  1.13471e+15
     -25.9064  1.22184e+15
     -26.0493  1.31561e+15
     -26.1923  1.41655e+15
     -26.3352  1.52518e+15
     -26.4782  1.64208e+15
     -26.6211  1.76789e+15
     -26.7641  1.90328e+15
     -26.9071  2.04897e+15
       -27.05  2.20575e+15
      -27.193  2.37444e+15
     -27.3359  2.55594e+15
     -27.4789  2.75123e+15
     -27.6218  2.96136e+15
     -27.7648  3.18743e+15
     -27.9077  3.43064e+15
     -28.0507   3.6923e+15
     -28.1937  3.97379e+15
     -28.3366  4.27659e+15
     -28.4796  4.60232e+15
     -28.6225  4.95267e+15
     -28.7655  5.32954e+15
     -28.9084   5.7349e+15
     -29.0514  6.17086e+15
     -29.1943  6.63975e+15
     -29.3373  7.14402e+15
     -29.4803  7.68634e+15
     -29.6232  8.26953e+15
     -29.7662  8.89663e+15
     -29.9091  9.57094e+15
     -30.0521   1.0296e+16
      -30.195  1.10757e+16
      -30.338  1.19139e+16
