Temperature = 1467.95K
THERMAL DISTRIBUTIONS:
  E, kcal/mol           W1
      130.172    0.0100231
      130.029    0.0104543
      129.886     0.010904
      129.743     0.011373
        129.6    0.0118621
      129.458    0.0123722
      129.315    0.0129041
      129.172    0.0134589
      129.029    0.0140375
      128.886    0.0146409
      128.743    0.0152702
        128.6    0.0159264
      128.457    0.0166108
      128.314    0.0173246
      128.171    0.0180689
      128.028    0.0188451
      127.885    0.0196546
      127.742    0.0204988
      127.599    0.0213792
      127.456    0.0222972
      127.313    0.0232547
       127.17    0.0242531
      127.027    0.0252943
      126.884      0.02638
      126.741    0.0275123
      126.598     0.028693
      126.455    0.0299243
      126.312    0.0312084
       126.17    0.0325473
      126.027    0.0339436
      125.884    0.0353996
      125.741     0.036918
      125.598    0.0385013
      125.455    0.0401523
      125.312     0.041874
      125.169    0.0436693
      125.026    0.0455414
      124.883    0.0474936
       124.74    0.0495292
      124.597    0.0516519
      124.454    0.0538653
      124.311    0.0561734
      124.168      0.05858
      124.025    0.0610896
      123.882    0.0637064
      123.739     0.066435
      123.596    0.0692801
      123.453    0.0722468
       123.31    0.0753403
      123.167    0.0785659
      123.025    0.0819292
      122.882    0.0854361
      122.739    0.0890928
      122.596    0.0929056
      122.453    0.0968811
       122.31     0.101026
      122.167     0.105349
      122.024     0.109855
      121.881     0.114554
      121.738     0.119453
      121.595     0.124562
      121.452     0.129888
      121.309     0.135442
      121.166     0.141232
      121.023     0.147269
       120.88     0.153564
      120.737     0.160127
      120.594     0.166969
      120.451     0.174104
      120.308     0.181542
      120.165     0.189298
      120.022     0.197384
      119.879     0.205814
      119.737     0.214604
      119.594     0.223768
      119.451     0.233322
      119.308     0.243283
      119.165     0.253669
      119.022     0.264496
      118.879     0.275785
      118.736     0.287554
      118.593     0.299824
       118.45     0.312616
      118.307     0.325952
      118.164     0.339856
      118.021     0.354352
      117.878     0.369464
      117.735     0.385219
      117.592     0.401644
      117.449     0.418767
      117.306     0.436619
      117.163     0.455229
       117.02     0.474631
      116.877     0.494857
      116.734     0.515943
      116.592     0.537926
      116.449     0.560842
      116.306     0.584732
      116.163     0.609636
       116.02     0.635599
      115.877     0.662664
      115.734     0.690879
      115.591     0.720292
      115.448     0.750954
      115.305     0.782917
      115.162     0.816237
      115.019     0.850972
      114.876      0.88718
      114.733     0.924925
       114.59     0.964272
      114.447      1.00529
      114.304      1.04804
      114.161      1.09261
      114.018      1.13907
      113.875       1.1875
      113.732      1.23798
      113.589      1.29061
      113.447      1.34546
      113.304      1.40264
      113.161      1.46224
      113.018      1.52437
      112.875      1.58913
      112.732      1.65663
      112.589      1.72699
      112.446      1.80034
      112.303      1.87679
       112.16      1.95647
      112.017      2.03953
      111.874      2.12611
      111.731      2.21635
      111.588      2.31041
      111.445      2.40846
      111.302      2.51065
      111.159      2.61716
      111.016      2.72818
      110.873       2.8439
       110.73      2.96451
      110.587      3.09022
      110.444      3.22125
      110.301      3.35782
      110.159      3.50016
      110.016      3.64852
      109.873      3.80315
       109.73      3.96431
      109.587      4.13228
      109.444      4.30735
      109.301      4.48982
      109.158      4.67999
      109.015       4.8782
      108.872      5.08477
      108.729      5.30007
      108.586      5.52446
      108.443      5.75832
        108.3      6.00205
      108.157      6.25606
      108.014       6.5208
      107.871      6.79671
      107.728      7.08425
      107.585      7.38393
      107.442      7.69624
      107.299      8.02173
      107.156      8.36094
      107.014      8.71445
      106.871      9.08287
      106.728      9.46681
      106.585      9.86694
      106.442      10.2839
      106.299      10.7185
      106.156      11.1714
      106.013      11.6433
       105.87      12.1351
      105.727      12.6477
      105.584      13.1818
      105.441      13.7384
      105.298      14.3184
      105.155      14.9229
      105.012      15.5528
      104.869      16.2092
      104.726      16.8932
      104.583       17.606
       104.44      18.3488
      104.297      19.1229
      104.154      19.9295
      104.011        20.77
      103.868      21.6458
      103.726      22.5585
      103.583      23.5095
       103.44      24.5005
      103.297      25.5332
      103.154      26.6092
      103.011      27.7304
      102.868      28.8988
      102.725      30.1162
      102.582      31.3848
      102.439      32.7066
      102.296      34.0839
      102.153      35.5191
       102.01      37.0144
      101.867      38.5726
      101.724      40.1961
      101.581      41.8878
      101.438      43.6504
      101.295       45.487
      101.152      47.4006
      101.009      49.3944
      100.866      51.4718
      100.723      53.6364
      100.581      55.8917
      100.438      58.2415
      100.295      60.6898
      100.152      63.2407
      100.009      65.8985
      99.8657      68.6676
      99.7228      71.5527
      99.5798      74.5586
      99.4369      77.6904
      99.2939      80.9533
       99.151      84.3529
       99.008      87.8947
      98.8651      91.5848
      98.7221      95.4293
      98.5791      99.4347
      98.4362      103.608
      98.2932      107.955
      98.1503      112.484
      98.0073      117.203
      97.8644      122.119
      97.7214      127.241
      97.5785      132.577
      97.4355      138.135
      97.2926      143.926
      97.1496      149.959
      97.0066      156.244
      96.8637      162.792
      96.7207      169.613
      96.5778      176.719
      96.4348      184.122
      96.2919      191.833
      96.1489      199.867
       96.006      208.236
       95.863      216.954
        95.72      226.036
      95.5771      235.497
      95.4341      245.353
      95.2912       255.62
      95.1482      266.315
      95.0053      277.456
      94.8623      289.061
      94.7194       301.15
      94.5764      313.743
      94.4334      326.861
      94.2905      340.526
      94.1475       354.76
      94.0046      369.586
      93.8616      385.031
      93.7187      401.118
      93.5757      417.876
      93.4328      435.331
      93.2898      453.513
      93.1468      472.451
      93.0039      492.178
      92.8609      512.725
       92.718      534.128
       92.575       556.42
      92.4321       579.64
      92.2891      603.826
      92.1462      629.017
      92.0032      655.256
      91.8602      682.585
      91.7173       711.05
      91.5743      740.698
      91.4314      771.578
      91.2884       803.74
      91.1455      837.239
      91.0025      872.129
      90.8596      908.468
      90.7166      946.316
      90.5736      985.735
      90.4307      1026.79
      90.2877      1069.55
      90.1448      1114.08
      90.0018      1160.46
      89.8589      1208.77
      89.7159      1259.08
       89.573      1311.47
        89.43      1366.04
      89.2871      1422.87
      89.1441      1482.05
      89.0011      1543.69
      88.8582      1607.89
      88.7152      1674.74
      88.5723      1744.36
      88.4293      1816.87
      88.2864      1892.37
      88.1434      1971.01
      88.0005       2052.9
      87.8575      2138.18
      87.7145      2226.99
      87.5716      2319.48
      87.4286      2415.79
      87.2857      2516.09
      87.1427      2620.54
      86.9998      2729.31
      86.8568      2842.57
      86.7139      2960.52
      86.5709      3083.34
      86.4279      3211.24
       86.285      3344.43
       86.142      3483.12
      85.9991      3627.54
      85.8561      3777.92
      85.7132      3934.52
      85.5702      4097.58
      85.4273      4267.38
      85.2843      4444.18
      85.1413      4628.29
      84.9984      4819.99
      84.8554       5019.6
      84.7125      5227.44
      84.5695      5443.86
      84.4266      5669.21
      84.2836      5903.85
      84.1407      6148.16
      83.9977      6402.55
      83.8547      6667.42
      83.7118       6943.2
      83.5688      7230.35
      83.4259      7529.33
      83.2829      7840.62
        83.14      8164.74
       82.997       8502.2
      82.8541      8853.55
      82.7111      9219.37
      82.5681      9600.25
      82.4252       9996.8
      82.2822      10409.7
      82.1393      10839.5
      81.9963        11287
      81.8534        11753
      81.7104      12238.1
      81.5675      12743.1
      81.4245      13268.9
      81.2816      13816.3
      81.1386      14386.2
      80.9956      14979.5
      80.8527      15597.2
      80.7097      16240.3
      80.5668      16909.7
      80.4238      17606.7
      80.2809      18332.3
      80.1379      19087.6
       79.995        19874
       79.852      20692.6
       79.709      21544.7
      79.5661      22431.9
      79.4231      23355.4
      79.2802      24316.8
      79.1372      25317.6
      78.9943      26359.5
      78.8513        27444
      78.7084        28573
      78.5654      29748.2
      78.4224      30971.5
      78.2795        32245
      78.1365      33570.6
      77.9936      34950.5
      77.8506      36386.9
      77.7077      37882.1
      77.5647      39438.4
      77.4218      41058.4
      77.2788      42744.7
      77.1358        44500
      76.9929        46327
      76.8499      48228.8
       76.707      50208.3
       76.564      52268.7
      76.4211      54413.2
      76.2781      56645.5
      76.1352      58968.9
      75.9922      61387.2
      75.8492      63904.2
      75.7063        66524
      75.5633      69250.8
      75.4204      72088.9
      75.2774      75042.8
      75.1345      78117.2
      74.9915        81317
      74.8486      84647.3
      74.7056      88113.5
      74.5626      91720.9
      74.4197      95475.4
      74.2767        99383
      74.1338       103450
      73.9908       107682
      73.8479       112087
      73.7049       116671
       73.562       121442
       73.419       126408
      73.2761       131575
      73.1331       136953
      72.9901       142549
      72.8472       148373
      72.7042       154435
      72.5613       160742
      72.4183       167306
      72.2754       174137
      72.1324       181246
      71.9895       188644
      71.8465       196342
      71.7035       204353
      71.5606       212689
      71.4176       221364
      71.2747       230391
      71.1317       239784
      70.9888       249559
      70.8458       259731
      70.7029       270315
      70.5599       281328
      70.4169       292789
       70.274       304714
       70.131       317122
      69.9881       330034
      69.8451       343468
      69.7022       357448
      69.5592       371993
      69.4163       387128
      69.2733       402875
      69.1303       419261
      68.9874       436309
      68.8444       454048
      68.7015       472505
      68.5585       491708
      68.4156       511688
      68.2726       532476
      68.1297       554105
      67.9867       576608
      67.8437       600021
      67.7008       624380
      67.5578       649723
      67.4149       676090
      67.2719       703522
       67.129       732062
       66.986       761755
      66.8431       792645
      66.7001       824783
      66.5572       858217
      66.4142       893000
      66.2712       929187
      66.1283       966832
      65.9853    1.006e+06
      65.8424  1.04674e+06
      65.6994  1.08912e+06
      65.5565  1.13321e+06
      65.4135  1.17908e+06
      65.2706   1.2268e+06
      65.1276  1.27644e+06
      64.9846  1.32807e+06
      64.8417  1.38179e+06
      64.6987  1.43766e+06
      64.5558  1.49579e+06
      64.4128  1.55625e+06
      64.2699  1.61915e+06
      64.1269  1.68458e+06
       63.984  1.75263e+06
       63.841  1.82342e+06
       63.698  1.89706e+06
      63.5551  1.97366e+06
      63.4121  2.05333e+06
      63.2692  2.13621e+06
      63.1262  2.22241e+06
      62.9833  2.31207e+06
      62.8403  2.40533e+06
      62.6974  2.50234e+06
      62.5544  2.60324e+06
      62.4114  2.70818e+06
      62.2685  2.81734e+06
      62.1255  2.93087e+06
      61.9826  3.04895e+06
      61.8396  3.17177e+06
      61.6967  3.29951e+06
      61.5537  3.43237e+06
      61.4108  3.57055e+06
      61.2678  3.71427e+06
      61.1248  3.86374e+06
      60.9819  4.01919e+06
      60.8389  4.18087e+06
       60.696  4.34901e+06
       60.553  4.52389e+06
      60.4101  4.70575e+06
      60.2671   4.8949e+06
      60.1242   5.0916e+06
      59.9812  5.29617e+06
      59.8382  5.50892e+06
      59.6953  5.73016e+06
      59.5523  5.96025e+06
      59.4094  6.19952e+06
      59.2664  6.44835e+06
      59.1235  6.70711e+06
      58.9805  6.97621e+06
      58.8376  7.25604e+06
      58.6946  7.54704e+06
      58.5517  7.84964e+06
      58.4087  8.16432e+06
      58.2657  8.49154e+06
      58.1228   8.8318e+06
      57.9798  9.18563e+06
      57.8369  9.55355e+06
      57.6939  9.93614e+06
       57.551   1.0334e+07
       57.408  1.07476e+07
      57.2651  1.11778e+07
      57.1221   1.1625e+07
      56.9791  1.20901e+07
      56.8362  1.25736e+07
      56.6932  1.30764e+07
      56.5503  1.35992e+07
      56.4073  1.41428e+07
      56.2644  1.47079e+07
      56.1214  1.52956e+07
      55.9785  1.59066e+07
      55.8355  1.65418e+07
      55.6925  1.72023e+07
      55.5496   1.7889e+07
      55.4066   1.8603e+07
      55.2637  1.93453e+07
      55.1207  2.01171e+07
      54.9778  2.09194e+07
      54.8348  2.17536e+07
      54.6919  2.26209e+07
      54.5489  2.35226e+07
      54.4059    2.446e+07
       54.263  2.54345e+07
        54.12  2.64477e+07
      53.9771   2.7501e+07
      53.8341  2.85959e+07
      53.6912  2.97343e+07
      53.5482  3.09177e+07
      53.4053  3.21479e+07
      53.2623  3.34268e+07
      53.1193  3.47562e+07
      52.9764  3.61383e+07
      52.8334   3.7575e+07
      52.6905  3.90684e+07
      52.5475  4.06209e+07
      52.4046  4.22347e+07
      52.2616  4.39122e+07
      52.1187   4.5656e+07
      51.9757  4.74687e+07
      51.8327  4.93528e+07
      51.6898  5.13113e+07
      51.5468  5.33471e+07
      51.4039  5.54632e+07
      51.2609  5.76627e+07
       51.118  5.99489e+07
       50.975  6.23252e+07
      50.8321  6.47952e+07
      50.6891  6.73625e+07
      50.5462  7.00308e+07
      50.4032  7.28042e+07
      50.2602  7.56868e+07
      50.1173  7.86829e+07
      49.9743  8.17968e+07
      49.8314  8.50332e+07
      49.6884  8.83969e+07
      49.5455  9.18929e+07
      49.4025  9.55262e+07
      49.2596  9.93024e+07
      49.1166  1.03227e+08
      48.9736  1.07305e+08
      48.8307  1.11544e+08
      48.6877  1.15949e+08
      48.5448  1.20528e+08
      48.4018  1.25285e+08
      48.2589   1.3023e+08
      48.1159  1.35368e+08
       47.973  1.40708e+08
        47.83  1.46257e+08
       47.687  1.52024e+08
      47.5441  1.58016e+08
      47.4011  1.64243e+08
      47.2582  1.70714e+08
      47.1152  1.77439e+08
      46.9723  1.84426e+08
      46.8293  1.91687e+08
      46.6864  1.99233e+08
      46.5434  2.07073e+08
      46.4004   2.1522e+08
      46.2575  2.23685e+08
      46.1145  2.32481e+08
      45.9716  2.41621e+08
      45.8286  2.51117e+08
      45.6857  2.60985e+08
      45.5427  2.71238e+08
      45.3998  2.81891e+08
      45.2568  2.92959e+08
      45.1138   3.0446e+08
      44.9709  3.16409e+08
      44.8279  3.28824e+08
       44.685  3.41722e+08
       44.542  3.55124e+08
      44.3991  3.69047e+08
      44.2561  3.83513e+08
      44.1132  3.98542e+08
      43.9702  4.14156e+08
      43.8273  4.30378e+08
      43.6843  4.47231e+08
      43.5413  4.64739e+08
      43.3984  4.82928e+08
      43.2554  5.01825e+08
      43.1125  5.21456e+08
      42.9695  5.41849e+08
      42.8266  5.63035e+08
      42.6836  5.85043e+08
      42.5407  6.07906e+08
      42.3977  6.31656e+08
      42.2547  6.56328e+08
      42.1118  6.81957e+08
      41.9688  7.08579e+08
      41.8259  7.36234e+08
      41.6829  7.64961e+08
        41.54  7.94801e+08
       41.397  8.25797e+08
      41.2541  8.57993e+08
      41.1111  8.91436e+08
      40.9681  9.26173e+08
      40.8252  9.62254e+08
      40.6822  9.99732e+08
      40.5393  1.03866e+09
      40.3963  1.07909e+09
      40.2534  1.12108e+09
      40.1104   1.1647e+09
      39.9675     1.21e+09
      39.8245  1.25705e+09
      39.6815  1.30592e+09
      39.5386  1.35668e+09
      39.3956  1.40939e+09
      39.2527  1.46414e+09
      39.1097  1.52099e+09
      38.9668  1.58004e+09
      38.8238  1.64137e+09
      38.6809  1.70506e+09
      38.5379   1.7712e+09
      38.3949  1.83989e+09
       38.252  1.91122e+09
       38.109   1.9853e+09
      37.9661  2.06223e+09
      37.8231  2.14211e+09
      37.6802  2.22507e+09
      37.5372  2.31122e+09
      37.3943  2.40068e+09
      37.2513  2.49358e+09
      37.1083  2.59004e+09
      36.9654  2.69021e+09
      36.8224  2.79422e+09
      36.6795  2.90223e+09
      36.5365  3.01437e+09
      36.3936  3.13082e+09
      36.2506  3.25174e+09
      36.1077  3.37728e+09
      35.9647  3.50764e+09
      35.8218  3.64299e+09
      35.6788  3.78353e+09
      35.5358  3.92944e+09
      35.3929  4.08094e+09
      35.2499  4.23824e+09
       35.107  4.40155e+09
       34.964   4.5711e+09
      34.8211  4.74714e+09
      34.6781   4.9299e+09
      34.5352  5.11965e+09
      34.3922  5.31664e+09
      34.2492  5.52115e+09
      34.1063  5.73346e+09
      33.9633  5.95388e+09
      33.8204   6.1827e+09
      33.6774  6.42025e+09
      33.5345  6.66686e+09
      33.3915  6.92286e+09
      33.2486  7.18861e+09
      33.1056  7.46448e+09
      32.9626  7.75085e+09
      32.8197  8.04813e+09
      32.6767  8.35671e+09
      32.5338  8.67703e+09
      32.3908  9.00953e+09
      32.2479  9.35466e+09
      32.1049  9.71291e+09
       31.962  1.00848e+10
       31.819  1.04707e+10
       31.676  1.08714e+10
      31.5331  1.12872e+10
      31.3901  1.17188e+10
      31.2472  1.21668e+10
      31.1042  1.26318e+10
      30.9613  1.31143e+10
      30.8183  1.36152e+10
      30.6754   1.4135e+10
      30.5324  1.46746e+10
      30.3894  1.52345e+10
      30.2465  1.58156e+10
      30.1035  1.64187e+10
      29.9606  1.70446e+10
      29.8176  1.76942e+10
      29.6747  1.83683e+10
      29.5317  1.90679e+10
      29.3888  1.97939e+10
      29.2458  2.05473e+10
      29.1028  2.13291e+10
      28.9599  2.21404e+10
      28.8169  2.29824e+10
       28.674   2.3856e+10
       28.531  2.47626e+10
      28.3881  2.57033e+10
      28.2451  2.66795e+10
      28.1022  2.76924e+10
      27.9592  2.87434e+10
      27.8163   2.9834e+10
      27.6733  3.09656e+10
      27.5303  3.21397e+10
      27.3874   3.3358e+10
      27.2444   3.4622e+10
      27.1015  3.59335e+10
      26.9585  3.72942e+10
      26.8156   3.8706e+10
      26.6726  4.01708e+10
      26.5297  4.16904e+10
      26.3867  4.32671e+10
      26.2437  4.49029e+10
      26.1008  4.65999e+10
      25.9578  4.83605e+10
      25.8149   5.0187e+10
      25.6719  5.20819e+10
       25.529  5.40476e+10
       25.386  5.60869e+10
      25.2431  5.82023e+10
      25.1001  6.03969e+10
      24.9571  6.26734e+10
      24.8142  6.50349e+10
