Temperature = 1054.9K
THERMAL DISTRIBUTIONS:
  E, kcal/mol           W1
      97.3412  4.48152e-06
      97.1982  4.75984e-06
      97.0552  5.05543e-06
      96.9123  5.36934e-06
      96.7693  5.70271e-06
      96.6264  6.05675e-06
      96.4834  6.43273e-06
      96.3405  6.83201e-06
      96.1975  7.25605e-06
      96.0546  7.70635e-06
      95.9116  8.18456e-06
      95.7686   8.6924e-06
      95.6257   9.2317e-06
      95.4827   9.8044e-06
      95.3398  1.04126e-05
      95.1968  1.10584e-05
      95.0539  1.17443e-05
      94.9109  1.24726e-05
       94.768   1.3246e-05
       94.625  1.40673e-05
       94.482  1.49394e-05
      94.3391  1.58655e-05
      94.1961  1.68489e-05
      94.0532  1.78932e-05
      93.9102  1.90021e-05
      93.7673  2.01796e-05
      93.6243    2.143e-05
      93.4814  2.27577e-05
      93.3384  2.41675e-05
      93.1954  2.56646e-05
      93.0525  2.72542e-05
      92.9095  2.89421e-05
      92.7666  3.07344e-05
      92.6236  3.26375e-05
      92.4807  3.46583e-05
      92.3377  3.68039e-05
      92.1948  3.90822e-05
      92.0518  4.15013e-05
      91.9089  4.40698e-05
      91.7659  4.67971e-05
      91.6229  4.96929e-05
        91.48  5.27676e-05
       91.337  5.60322e-05
      91.1941  5.94984e-05
      91.0511  6.31788e-05
      90.9082  6.70864e-05
      90.7652  7.12352e-05
      90.6223  7.56403e-05
      90.4793  8.03172e-05
      90.3363  8.52829e-05
      90.1934  9.05551e-05
      90.0504  9.61526e-05
      89.9075  0.000102096
      89.7645  0.000108405
      89.6216  0.000115104
      89.4786  0.000122217
      89.3357  0.000129767
      89.1927  0.000137784
      89.0497  0.000146295
      88.9068  0.000155331
      88.7638  0.000164924
      88.6209  0.000175109
      88.4779  0.000185921
       88.335    0.0001974
       88.192  0.000209587
      88.0491  0.000222524
      87.9061  0.000236259
      87.7631   0.00025084
      87.6202   0.00026632
      87.4772  0.000282752
      87.3343  0.000300198
      87.1913  0.000318717
      87.0484  0.000338378
      86.9054  0.000359248
      86.7625  0.000381404
      86.6195  0.000404924
      86.4765  0.000429892
      86.3336  0.000456397
      86.1906  0.000484533
      86.0477    0.0005144
      85.9047  0.000546105
      85.7618  0.000579761
      85.6188  0.000615488
      85.4759  0.000653412
      85.3329  0.000693669
        85.19  0.000736402
       85.047  0.000781763
       84.904  0.000829912
      84.7611  0.000881022
      84.6181  0.000935275
      84.4752  0.000992862
      84.3322   0.00105399
      84.1893   0.00111887
      84.0463   0.00118774
      83.9034   0.00126084
      83.7604   0.00133844
      83.6174   0.00142079
      83.4745   0.00150821
      83.3315     0.001601
      83.1886   0.00169948
      83.0456   0.00180402
      82.9027   0.00191497
      82.7597   0.00203273
      82.6168   0.00215772
      82.4738   0.00229038
      82.3308   0.00243118
      82.1879   0.00258062
      82.0449   0.00273924
       81.902   0.00290758
       81.759   0.00308625
      81.6161   0.00327588
      81.4731   0.00347714
      81.3302   0.00369074
      81.1872   0.00391744
      81.0442   0.00415803
      80.9013   0.00441338
      80.7583   0.00468438
      80.6154   0.00497198
      80.4724   0.00527721
      80.3295   0.00560115
      80.1865   0.00594493
      80.0436   0.00630978
      79.9006   0.00669697
      79.7576   0.00710787
      79.6147   0.00754395
      79.4717   0.00800672
      79.3288   0.00849783
      79.1858   0.00901901
      79.0429   0.00957208
      78.8999     0.010159
       78.757    0.0107819
       78.614    0.0114428
       78.471    0.0121442
      78.3281    0.0128886
      78.1851    0.0136784
      78.0422    0.0145166
      77.8992     0.015406
      77.7563    0.0163498
      77.6133    0.0173513
      77.4704    0.0184141
      77.3274    0.0195418
      77.1845    0.0207385
      77.0415    0.0220082
      76.8985    0.0233556
      76.7556    0.0247853
      76.6126    0.0263024
      76.4697    0.0279121
      76.3267    0.0296202
      76.1838    0.0314326
      76.0408    0.0333556
      75.8979    0.0353961
      75.7549    0.0375611
      75.6119    0.0398584
       75.469    0.0422958
       75.326     0.044882
      75.1831     0.047626
      75.0401    0.0505374
      74.8972    0.0536265
      74.7542     0.056904
      74.6113    0.0603815
      74.4683     0.064071
      74.3253    0.0679855
      74.1824    0.0721386
      74.0394     0.076545
      73.8965      0.08122
      73.7535    0.0861799
      73.6106    0.0914422
      73.4676     0.097025
      73.3247     0.102948
      73.1817     0.109232
      73.0387     0.115899
      72.8958     0.122971
      72.7528     0.130475
      72.6099     0.138435
      72.4669      0.14688
       72.324     0.155839
       72.181     0.165344
      72.0381     0.175427
      71.8951     0.186123
      71.7521     0.197471
      71.6092     0.209509
      71.4662     0.222279
      71.3233     0.235826
      71.1803     0.250197
      71.0374     0.265441
      70.8944     0.281613
      70.7515     0.298768
      70.6085     0.316966
      70.4655     0.336269
      70.3226     0.356746
      70.1796     0.378467
      70.0367     0.401508
      69.8937     0.425949
      69.7508     0.451874
      69.6078     0.479374
      69.4649     0.508544
      69.3219     0.539485
       69.179     0.572304
       69.036     0.607116
       68.893     0.644041
      68.7501     0.683207
      68.6071     0.724749
      68.4642     0.768812
      68.3212     0.815548
      68.1783     0.865119
      68.0353     0.917696
      67.8924     0.973462
      67.7494      1.03261
      67.6064      1.09534
      67.4635      1.16188
      67.3205      1.23245
      67.1776      1.30729
      67.0346      1.38667
      66.8917      1.47087
      66.7487      1.56016
      66.6058      1.65486
      66.4628      1.75529
      66.3198      1.86181
      66.1769      1.97477
      66.0339      2.09458
       65.891      2.22164
       65.748      2.35638
      65.6051      2.49929
      65.4621      2.65084
      65.3192      2.81155
      65.1762      2.98199
      65.0332      3.16274
      64.8903      3.35442
      64.7473       3.5577
      64.6044      3.77326
      64.4614      4.00185
      64.3185      4.24426
      64.1755      4.50132
      64.0326      4.77391
      63.8896      5.06298
      63.7466       5.3695
      63.6037      5.69455
      63.4607      6.03922
      63.3178      6.40471
      63.1748      6.79226
      63.0319      7.20321
      62.8889      7.63897
       62.746      8.10103
       62.603      8.59097
      62.4601      9.11048
      62.3171      9.66132
      62.1741      10.2454
      62.0312      10.8647
      61.8882      11.5213
      61.7453      12.2176
      61.6023      12.9558
      61.4594      13.7385
      61.3164      14.5684
      61.1735      15.4483
      61.0305      16.3813
      60.8875      17.3704
      60.7446      18.4191
      60.6016       19.531
      60.4587      20.7098
      60.3157      21.9596
      60.1728      23.2847
      60.0298      24.6895
      59.8869      26.1789
      59.7439      27.7579
      59.6009      29.4319
       59.458      31.2066
       59.315      33.0881
      59.1721      35.0827
      59.0291      37.1973
      58.8862      39.4391
      58.7432      41.8156
      58.6003      44.3349
      58.4573      47.0057
      58.3143      49.8369
      58.1714      52.8383
      58.0284        56.02
      57.8855      59.3928
      57.7425      62.9682
      57.5996      66.7582
      57.4566      70.7758
      57.3137      75.0346
      57.1707      79.5491
      57.0277      84.3344
      56.8848      89.4069
      56.7418      94.7837
      56.5989      100.483
      56.4559      106.524
       56.313      112.928
        56.17      119.715
      56.0271       126.91
      55.8841      134.535
      55.7411      142.618
      55.5982      151.185
      55.4552      160.265
      55.3123       169.89
      55.1693       180.09
      55.0264      190.902
      54.8834      202.361
      54.7405      214.506
      54.5975      227.379
      54.4546      241.021
      54.3116       255.48
      54.1686      270.805
      54.0257      287.046
      53.8827      304.258
      53.7398        322.5
      53.5968      341.833
      53.4539      362.322
      53.3109      384.035
       53.168      407.046
       53.025      431.433
       52.882      457.277
      52.7391      484.664
      52.5961      513.688
      52.4532      544.445
      52.3102      577.038
      52.1673      611.578
      52.0243       648.18
      51.8814      686.966
      51.7384      728.067
      51.5954       771.62
      51.4525      817.771
      51.3095      866.676
      51.1666      918.497
      51.0236      973.408
      50.8807      1031.59
      50.7377      1093.25
      50.5948      1158.58
      50.4518       1227.8
      50.3088      1301.14
      50.1659      1378.86
      50.0229       1461.2
        49.88      1548.45
       49.737      1640.89
      49.5941      1738.84
      49.4511      1842.62
      49.3082      1952.57
      49.1652      2069.07
      49.0222       2192.5
      48.8793      2323.27
      48.7363      2461.81
      48.5934       2608.6
      48.4504      2764.11
      48.3075      2928.87
      48.1645      3103.43
      48.0216      3288.35
      47.8786      3484.26
      47.7356      3691.82
      47.5927       3911.7
      47.4497      4144.64
      47.3068      4391.41
      47.1638      4652.83
      47.0209      4929.76
      46.8779      5223.14
       46.735      5533.92
       46.592      5863.14
      46.4491      6211.89
      46.3061      6581.33
      46.1631      6972.67
      46.0202      7387.21
      45.8772      7826.32
      45.7343      8291.47
      45.5913      8784.17
      45.4484      9306.07
      45.3054      9858.88
      45.1625      10444.4
      45.0195      11064.7
      44.8765      11721.6
      44.7336      12417.5
      44.5906      13154.5
      44.4477      13935.1
      44.3047      14761.9
      44.1618      15637.7
      44.0188      16565.2
      43.8759      17547.6
      43.7329      18588.1
      43.5899      19690.1
       43.447      20857.2
       43.304      22093.2
      43.1611      23402.3
      43.0181      24788.8
      42.8752      26257.1
      42.7322      27812.1
      42.5893        29459
      42.4463        31203
      42.3033        33050
      42.1604        35006
      42.0174      37077.4
      41.8745        39271
      41.7315      41593.9
      41.5886      44053.8
      41.4456      46658.8
      41.3027      49417.3
      41.1597      52338.3
      41.0167      55431.5
      40.8738      58706.9
      40.7308      62175.3
      40.5879      65847.9
      40.4449      69736.7
       40.302      73854.5
       40.159      78214.7
      40.0161      82831.4
      39.8731      87719.8
      39.7302      92895.8
      39.5872      98376.1
      39.4442       104179
      39.3013       110323
      39.1583       116828
      39.0154       123715
      38.8724       131007
      38.7295       138727
      38.5865       146901
      38.4436       155555
      38.3006       164717
      38.1576       174417
      38.0147       184686
      37.8717       195558
      37.7288       207067
      37.5858       219252
      37.4429       232151
      37.2999       245807
       37.157       260264
       37.014       275567
       36.871       291768
      36.7281       308918
      36.5851       327072
      36.4422       346290
      36.2992       366633
      36.1563       388167
      36.0133       410962
      35.8704       435090
      35.7274       460631
      35.5844       487665
      35.4415       516281
      35.2985       546570
      35.1556       578631
      35.0126       612565
      34.8697       648482
      34.7267       686498
      34.5838       726735
      34.4408       769321
      34.2978       814395
      34.1549       862100
      34.0119       912590
       33.869       966027
       33.726  1.02258e+06
      33.5831  1.08243e+06
      33.4401  1.14578e+06
      33.2972  1.21282e+06
      33.1542  1.28376e+06
      33.0112  1.35885e+06
      32.8683   1.4383e+06
      32.7253  1.52239e+06
      32.5824  1.61138e+06
      32.4394  1.70554e+06
      32.2965  1.80519e+06
      32.1535  1.91065e+06
      32.0106  2.02224e+06
      31.8676  2.14032e+06
      31.7247  2.26527e+06
      31.5817   2.3975e+06
      31.4387  2.53741e+06
      31.2958  2.68545e+06
      31.1528  2.84211e+06
      31.0099  3.00786e+06
      30.8669  3.18325e+06
       30.724  3.36883e+06
       30.581  3.56518e+06
      30.4381  3.77294e+06
      30.2951  3.99276e+06
      30.1521  4.22534e+06
      30.0092  4.47141e+06
      29.8662  4.73176e+06
      29.7233  5.00722e+06
      29.5803  5.29865e+06
      29.4374  5.60697e+06
      29.2944  5.93317e+06
      29.1515  6.27827e+06
      29.0085  6.64338e+06
      28.8655  7.02963e+06
      28.7226  7.43825e+06
      28.5796  7.87053e+06
      28.4367  8.32784e+06
      28.2937  8.81162e+06
      28.1508  9.32339e+06
      28.0078  9.86477e+06
      27.8649  1.04375e+07
      27.7219  1.10433e+07
      27.5789  1.16841e+07
       27.436   1.2362e+07
       27.293   1.3079e+07
      27.1501  1.38375e+07
      27.0071  1.46398e+07
      26.8642  1.54884e+07
      26.7212  1.63861e+07
      26.5783  1.73355e+07
      26.4353  1.83397e+07
      26.2923  1.94019e+07
      26.1494  2.05253e+07
      26.0064  2.17136e+07
      25.8635  2.29703e+07
      25.7205  2.42995e+07
      25.5776  2.57053e+07
      25.4346  2.71921e+07
      25.2917  2.87645e+07
      25.1487  3.04275e+07
      25.0057  3.21862e+07
      24.8628  3.40462e+07
      24.7198  3.60132e+07
      24.5769  3.80934e+07
      24.4339  4.02933e+07
       24.291  4.26197e+07
       24.148  4.50798e+07
      24.0051  4.76813e+07
      23.8621  5.04324e+07
      23.7192  5.33415e+07
      23.5762  5.64177e+07
      23.4332  5.96706e+07
      23.2903  6.31103e+07
      23.1473  6.67474e+07
      23.0044  7.05932e+07
      22.8614  7.46596e+07
      22.7185  7.89593e+07
      22.5755  8.35056e+07
      22.4326  8.83125e+07
      22.2896  9.33949e+07
      22.1466  9.87686e+07
      22.0037   1.0445e+08
      21.8607  1.10457e+08
      21.7178  1.16808e+08
      21.5748  1.23522e+08
      21.4319  1.30621e+08
      21.2889  1.38126e+08
       21.146   1.4606e+08
       21.003  1.54448e+08
        20.86  1.63316e+08
      20.7171   1.7269e+08
      20.5741    1.826e+08
      20.4312  1.93076e+08
      20.2882  2.04151e+08
      20.1453  2.15858e+08
      20.0023  2.28234e+08
      19.8594  2.41315e+08
      19.7164  2.55144e+08
      19.5734  2.69761e+08
      19.4305  2.85211e+08
      19.2875  3.01543e+08
      19.1446  3.18805e+08
      19.0016  3.37052e+08
      18.8587  3.56338e+08
      18.7157  3.76722e+08
      18.5728  3.98267e+08
      18.4298  4.21038e+08
      18.2868  4.45106e+08
      18.1439  4.70543e+08
      18.0009  4.97426e+08
       17.858  5.25839e+08
       17.715  5.55867e+08
      17.5721  5.87602e+08
      17.4291   6.2114e+08
      17.2862  6.56583e+08
      17.1432  6.94039e+08
      17.0002  7.33621e+08
      16.8573  7.75451e+08
      16.7143  8.19654e+08
      16.5714  8.66365e+08
      16.4284  9.15725e+08
      16.2855  9.67884e+08
      16.1425    1.023e+09
      15.9996  1.08124e+09
      15.8566  1.14278e+09
      15.7137   1.2078e+09
      15.5707  1.27651e+09
      15.4277   1.3491e+09
      15.2848   1.4258e+09
      15.1418  1.50685e+09
      14.9989  1.59247e+09
      14.8559  1.68294e+09
       14.713  1.77852e+09
        14.57  1.87951e+09
      14.4271   1.9862e+09
      14.2841  2.09891e+09
      14.1411    2.218e+09
      13.9982   2.3438e+09
      13.8552   2.4767e+09
      13.7123   2.6171e+09
      13.5693  2.76542e+09
      13.4264   2.9221e+09
      13.2834  3.08762e+09
      13.1405  3.26246e+09
      12.9975  3.44715e+09
      12.8545  3.64225e+09
      12.7116  3.84833e+09
      12.5686  4.06601e+09
      12.4257  4.29594e+09
      12.2827   4.5388e+09
      12.1398  4.79532e+09
      11.9968  5.06627e+09
      11.8539  5.35244e+09
      11.7109   5.6547e+09
      11.5679  5.97393e+09
       11.425  6.31109e+09
       11.282  6.66718e+09
      11.1391  7.04325e+09
      10.9961  7.44042e+09
      10.8532  7.85987e+09
      10.7102  8.30285e+09
      10.5673  8.77065e+09
      10.4243  9.26467e+09
      10.2813  9.78637e+09
      10.1384  1.03373e+10
      9.99544   1.0919e+10
      9.85248  1.15334e+10
      9.70953  1.21821e+10
      9.56657   1.2867e+10
      9.42362  1.35903e+10
      9.28066  1.43541e+10
      9.13771  1.51605e+10
      8.99475  1.60119e+10
       8.8518  1.69109e+10
      8.70884  1.78601e+10
      8.56588  1.88623e+10
      8.42293  1.99204e+10
      8.27997  2.10376e+10
      8.13702   2.2217e+10
      7.99406  2.34621e+10
      7.85111  2.47767e+10
      7.70815  2.61645e+10
       7.5652  2.76296e+10
      7.42224  2.91763e+10
      7.27929   3.0809e+10
      7.13633  3.25326e+10
      6.99338   3.4352e+10
      6.85042  3.62727e+10
      6.70746  3.83001e+10
      6.56451  4.04401e+10
      6.42155   4.2699e+10
       6.2786  4.50834e+10
      6.13564  4.76001e+10
      5.99269  5.02565e+10
      5.84973  5.30603e+10
      5.70678  5.60196e+10
      5.56382  5.91429e+10
      5.42087  6.24394e+10
      5.27791  6.59185e+10
      5.13496  6.95902e+10
        4.992  7.34653e+10
      4.84905  7.75548e+10
      4.70609  8.18706e+10
      4.56313  8.64252e+10
      4.42018  9.12315e+10
      4.27722  9.63035e+10
      4.13427  1.01656e+11
      3.99131  1.07304e+11
      3.84836  1.13263e+11
       3.7054  1.19552e+11
      3.56245  1.26188e+11
      3.41949  1.33189e+11
      3.27654  1.40577e+11
      3.13358  1.48372e+11
      2.99063  1.56597e+11
      2.84767  1.65274e+11
      2.70472   1.7443e+11
      2.56176  1.84089e+11
       2.4188   1.9428e+11
      2.27585  2.05031e+11
      2.13289  2.16374e+11
      1.98994   2.2834e+11
      1.84698  2.40963e+11
      1.70403   2.5428e+11
      1.56107  2.68328e+11
      1.41812  2.83147e+11
      1.27516  2.98779e+11
      1.13221  3.15269e+11
     0.989251  3.32663e+11
     0.846296   3.5101e+11
      0.70334  3.70362e+11
     0.560385  3.90775e+11
      0.41743  4.12304e+11
     0.274474  4.35012e+11
     0.131519  4.58962e+11
   -0.0114364  4.84222e+11
    -0.154392  5.10863e+11
    -0.297347  5.38959e+11
    -0.440302  5.68591e+11
    -0.583258   5.9984e+11
    -0.726213  6.32795e+11
    -0.869169  6.67548e+11
     -1.01212  7.04197e+11
     -1.15508  7.42843e+11
     -1.29803  7.83597e+11
     -1.44099   8.2657e+11
     -1.58395  8.71884e+11
      -1.7269  9.19664e+11
     -1.86986  9.70044e+11
     -2.01281  1.02317e+12
     -2.15577  1.07918e+12
     -2.29872  1.13823e+12
     -2.44168  1.20049e+12
     -2.58463  1.26614e+12
     -2.72759  1.33535e+12
     -2.87054  1.40831e+12
      -3.0135  1.48523e+12
     -3.15645  1.56633e+12
     -3.29941  1.65182e+12
     -3.44236  1.74194e+12
     -3.58532  1.83694e+12
     -3.72828  1.93709e+12
     -3.87123  2.04266e+12
     -4.01419  2.15393e+12
     -4.15714  2.27123e+12
      -4.3001  2.39486e+12
     -4.44305  2.52518e+12
     -4.58601  2.66253e+12
     -4.72896  2.80729e+12
     -4.87192  2.95987e+12
     -5.01487  3.12068e+12
     -5.15783  3.29016e+12
     -5.30078  3.46877e+12
     -5.44374  3.65701e+12
     -5.58669  3.85538e+12
     -5.72965  4.06443e+12
     -5.87261  4.28472e+12
     -6.01556  4.51687e+12
     -6.15852  4.76149e+12
     -6.30147  5.01927e+12
     -6.44443  5.29088e+12
     -6.58738  5.57709e+12
     -6.73034  5.87865e+12
     -6.87329  6.19639e+12
     -7.01625  6.53117e+12
      -7.1592   6.8839e+12
     -7.30216  7.25552e+12
     -7.44511  7.64704e+12
     -7.58807  8.05952e+12
     -7.73103  8.49408e+12
     -7.87398  8.95187e+12
     -8.01694  9.43413e+12
