Temperature = 1646.24K
THERMAL DISTRIBUTIONS:
  E, kcal/mol           W1
      144.345    0.0909318
      144.202    0.0943766
      144.059    0.0979516
      143.916     0.101662
      143.773     0.105512
       143.63     0.109508
      143.487     0.113654
      143.344     0.117957
      143.201     0.122423
      143.058     0.127057
      142.915     0.131866
      142.772     0.136857
      142.629     0.142036
      142.486     0.147411
      142.343     0.152988
      142.201     0.158776
      142.058     0.164782
      141.915     0.171015
      141.772     0.177483
      141.629     0.184195
      141.486      0.19116
      141.343     0.198387
        141.2     0.205887
      141.057      0.21367
      140.914     0.221746
      140.771     0.230127
      140.628     0.238824
      140.485     0.247848
      140.342     0.257213
      140.199      0.26693
      140.056     0.277013
      139.913     0.287476
       139.77     0.298334
      139.627       0.3096
      139.484      0.32129
      139.341     0.333421
      139.198     0.346008
      139.056     0.359069
      138.913     0.372622
       138.77     0.386685
      138.627     0.401278
      138.484     0.416419
      138.341      0.43213
      138.198     0.448433
      138.055     0.465348
      137.912       0.4829
      137.769     0.501112
      137.626     0.520009
      137.483     0.539616
       137.34     0.559961
      137.197      0.58107
      137.054     0.602973
      136.911     0.625699
      136.768      0.64928
      136.625     0.673746
      136.482     0.699132
      136.339     0.725471
      136.196       0.7528
      136.053     0.781156
      135.911     0.810577
      135.768     0.841102
      135.625     0.872774
      135.482     0.905635
      135.339     0.939729
      135.196     0.975103
      135.053      1.01181
       134.91      1.04988
      134.767      1.08939
      134.624      1.13038
      134.481      1.17291
      134.338      1.21704
      134.195      1.26282
      134.052      1.31031
      133.909      1.35959
      133.766      1.41071
      133.623      1.46376
       133.48      1.51879
      133.337      1.57588
      133.194      1.63511
      133.051      1.69657
      132.908      1.76032
      132.765      1.82647
      132.623      1.89509
       132.48      1.96628
      132.337      2.04014
      132.194      2.11677
      132.051      2.19626
      131.908      2.27873
      131.765      2.36429
      131.622      2.45305
      131.479      2.54514
      131.336      2.64067
      131.193      2.73977
       131.05      2.84259
      130.907      2.94925
      130.764       3.0599
      130.621      3.17469
      130.478      3.29377
      130.335      3.41731
      130.192      3.54546
      130.049      3.67841
      129.906      3.81633
      129.763       3.9594
       129.62      4.10782
      129.478      4.26178
      129.335       4.4215
      129.192      4.58719
      129.049      4.75906
      128.906      4.93736
      128.763      5.12231
       128.62      5.31417
      128.477       5.5132
      128.334      5.71966
      128.191      5.93382
      128.048      6.15598
      127.905      6.38643
      127.762      6.62548
      127.619      6.87345
      127.476      7.13067
      127.333      7.39749
       127.19      7.67426
      127.047      7.96136
      126.904      8.25916
      126.761      8.56806
      126.618      8.88848
      126.475      9.22085
      126.332       9.5656
       126.19      9.92321
      126.047      10.2941
      125.904      10.6789
      125.761       11.078
      125.618      11.4919
      125.475      11.9213
      125.332      12.3667
      125.189      12.8286
      125.046      13.3078
      124.903      13.8048
       124.76      14.3203
      124.617      14.8549
      124.474      15.4095
      124.331      15.9847
      124.188      16.5814
      124.045      17.2002
      123.902       17.842
      123.759      18.5077
      123.616      19.1982
      123.473      19.9143
       123.33      20.6571
      123.187      21.4275
      123.045      22.2265
      122.902      23.0552
      122.759      23.9148
      122.616      24.8062
      122.473      25.7308
       122.33      26.6897
      122.187      27.6843
      122.044      28.7157
      121.901      29.7855
      121.758       30.895
      121.615      32.0458
      121.472      33.2392
      121.329      34.4769
      121.186      35.7605
      121.043      37.0918
        120.9      38.4725
      120.757      39.9044
      120.614      41.3894
      120.471      42.9296
      120.328      44.5268
      120.185      46.1832
      120.042      47.9011
        119.9      49.6826
      119.757      51.5302
      119.614      53.4463
      119.471      55.4333
      119.328       57.494
      119.185       59.631
      119.042      61.8472
      118.899      64.1455
      118.756      66.5289
      118.613      69.0005
       118.47      71.5637
      118.327      74.2218
      118.184      76.9782
      118.041      79.8367
      117.898      82.8009
      117.755      85.8748
      117.612      89.0625
      117.469       92.368
      117.326      95.7958
      117.183      99.3504
       117.04      103.036
      116.897      106.859
      116.754      110.822
      116.612      114.933
      116.469      119.195
      116.326      123.614
      116.183      128.197
       116.04      132.949
      115.897      137.877
      115.754      142.986
      115.611      148.285
      115.468      153.779
      115.325      159.476
      115.182      165.383
      115.039      171.508
      114.896      177.859
      114.753      184.445
       114.61      191.273
      114.467      198.354
      114.324      205.695
      114.181      213.308
      114.038      221.201
      113.895      229.385
      113.752      237.871
      113.609       246.67
      113.467      255.793
      113.324      265.252
      113.181      275.059
      113.038      285.229
      112.895      295.772
      112.752      306.704
      112.609      318.039
      112.466      329.791
      112.323      341.975
       112.18      354.608
      112.037      367.706
      111.894      381.287
      111.751      395.366
      111.608      409.964
      111.465      425.099
      111.322      440.791
      111.179       457.06
      111.036      473.926
      110.893      491.414
       110.75      509.543
      110.607       528.34
      110.464      547.827
      110.322       568.03
      110.179      588.976
      110.036      610.691
      109.893      633.203
       109.75      656.543
      109.607      680.739
      109.464      705.824
      109.321       731.83
      109.178       758.79
      109.035       786.74
      108.892      815.715
      108.749      845.754
      108.606      876.894
      108.463      909.177
       108.32      942.644
      108.177      977.338
      108.034       1013.3
      107.891      1050.59
      107.748      1089.24
      107.605      1129.31
      107.462      1170.84
      107.319       1213.9
      107.176      1258.54
      107.034      1304.81
      106.891      1352.77
      106.748      1402.49
      106.605      1454.03
      106.462      1507.46
      106.319      1562.85
      106.176      1620.26
      106.033      1679.77
       105.89      1741.46
      105.747       1805.4
      105.604      1871.69
      105.461       1940.4
      105.318      2011.62
      105.175      2085.44
      105.032      2161.97
      104.889      2241.29
      104.746      2323.51
      104.603      2408.73
       104.46      2497.07
      104.317      2588.63
      104.174      2683.54
      104.031      2781.91
      103.889      2883.88
      103.746      2989.57
      103.603      3099.11
       103.46      3212.66
      103.317      3330.34
      103.174      3452.32
      103.031      3578.75
      102.888       3709.8
      102.745      3845.62
      102.602      3986.39
      102.459       4132.3
      102.316      4283.52
      102.173      4440.26
       102.03      4602.71
      101.887      4771.08
      101.744      4945.58
      101.601      5126.44
      101.458      5313.88
      101.315      5508.15
      101.172       5709.5
      101.029      5918.17
      100.886      6134.44
      100.743      6358.58
      100.601      6590.87
      100.458      6831.62
      100.315      7081.12
      100.172       7339.7
      100.029      7607.68
      99.8858       7885.4
      99.7428      8173.23
      99.5998      8471.51
      99.4569      8780.63
      99.3139      9100.99
       99.171      9432.98
       99.028      9777.04
      98.8851      10133.6
      98.7421      10503.1
      98.5992        10886
      98.4562      11282.8
      98.3133        11694
      98.1703      12120.2
      98.0273      12561.8
      97.8844      13019.4
      97.7414      13493.6
      97.5985      13985.1
      97.4555      14494.3
      97.3126        15022
      97.1696      15568.9
      97.0267      16135.5
      96.8837      16722.7
      96.7407      17331.2
      96.5978      17961.7
      96.4548      18615.1
      96.3119      19292.1
      96.1689      19993.7
       96.026      20720.6
       95.883      21473.9
      95.7401      22254.4
      95.5971      23063.2
      95.4541      23901.2
      95.3112      24769.5
      95.1682      25669.3
      95.0253      26601.6
      94.8823      27567.6
      94.7394      28568.5
      94.5964      29605.6
      94.4535      30680.2
      94.3105      31793.7
      94.1675      32947.3
      94.0246      34142.7
      93.8816      35381.2
      93.7387      36664.4
      93.5957        37994
      93.4528      39371.5
      93.3098      40798.8
      93.1669      42277.6
      93.0239      43809.8
      92.8809      45397.2
       92.738      47041.9
       92.595      48745.9
      92.4521      50511.4
      92.3091      52340.5
      92.1662      54235.5
      92.0232      56198.8
      91.8803      58232.9
      91.7373      60340.3
      91.5943      62523.6
      91.4514      64785.5
      91.3084      67128.8
      91.1655      69556.6
      91.0225      72071.7
      90.8796      74677.4
      90.7366      77376.8
      90.5937      80173.4
      90.4507      83070.5
      90.3078      86071.9
      90.1648      89181.2
      90.0218      92402.3
      89.8789      95739.2
      89.7359        99196
       89.593       102777
        89.45       106487
      89.3071       110330
      89.1641       114311
      89.0212       118435
      88.8782       122707
      88.7352       127133
      88.5923       131717
      88.4493       136466
      88.3064       141385
      88.1634       146481
      88.0205       151759
      87.8775       157227
      87.7346       162891
      87.5916       168758
      87.4486       174835
      87.3057       181130
      87.1627       187651
      87.0198       194405
      86.8768       201401
      86.7339       208647
      86.5909       216154
       86.448       223928
       86.305       231981
       86.162       240323
      86.0191       248963
      85.8761       257911
      85.7332       267180
      85.5902       276781
      85.4473       286724
      85.3043       297024
      85.1614       307691
      85.0184       318739
      84.8754       330182
      84.7325       342034
      84.5895       354310
      84.4466       367023
      84.3036       380191
      84.1607       393829
      84.0177       407953
      83.8748       422581
      83.7318       437732
      83.5889       453422
      83.4459       469673
      83.3029       486502
        83.16       503932
       83.017       521983
      82.8741       540677
      82.7311       560038
      82.5882       580088
      82.4452       600852
      82.3023       622356
      82.1593       644625
      82.0163       667687
      81.8734       691570
      81.7304       716303
      81.5875       741916
      81.4445       768440
      81.3016       795907
      81.1586       824351
      81.0157       853806
      80.8727       884308
      80.7297       915894
      80.5868       948602
      80.4438       982472
      80.3009  1.01755e+06
      80.1579  1.05386e+06
       80.015  1.09147e+06
       79.872  1.13042e+06
      79.7291  1.17074e+06
      79.5861   1.2125e+06
      79.4431  1.25573e+06
      79.3002  1.30051e+06
      79.1572  1.34686e+06
      79.0143  1.39487e+06
      78.8713  1.44457e+06
      78.7284  1.49604e+06
      78.5854  1.54933e+06
      78.4425   1.6045e+06
      78.2995  1.66164e+06
      78.1565  1.72079e+06
      78.0136  1.78204e+06
      77.8706  1.84546e+06
      77.7277  1.91112e+06
      77.5847  1.97911e+06
      77.4418   2.0495e+06
      77.2988  2.12238e+06
      77.1559  2.19784e+06
      77.0129  2.27597e+06
      76.8699  2.35686e+06
       76.727  2.44061e+06
       76.584  2.52732e+06
      76.4411  2.61709e+06
      76.2981  2.71003e+06
      76.1552  2.80626e+06
      76.0122  2.90588e+06
      75.8693  3.00902e+06
      75.7263   3.1158e+06
      75.5834  3.22635e+06
      75.4404   3.3408e+06
      75.2974  3.45928e+06
      75.1545  3.58195e+06
      75.0115  3.70894e+06
      74.8686   3.8404e+06
      74.7256   3.9765e+06
      74.5827   4.1174e+06
      74.4397  4.26326e+06
      74.2968  4.41425e+06
      74.1538  4.57057e+06
      74.0108  4.73239e+06
      73.8679   4.8999e+06
      73.7249  5.07331e+06
       73.582  5.25282e+06
       73.439  5.43865e+06
      73.2961  5.63102e+06
      73.1531  5.83014e+06
      73.0102  6.03627e+06
      72.8672  6.24965e+06
      72.7242  6.47052e+06
      72.5813  6.69916e+06
      72.4383  6.93582e+06
      72.2954   7.1808e+06
      72.1524  7.43438e+06
      72.0095  7.69687e+06
      71.8665  7.96856e+06
      71.7236  8.24979e+06
      71.5806  8.54089e+06
      71.4376   8.8422e+06
      71.2947  9.15407e+06
      71.1517  9.47688e+06
      71.0088  9.81101e+06
      70.8658  1.01568e+07
      70.7229  1.05148e+07
      70.5799  1.08853e+07
       70.437  1.12688e+07
       70.294  1.16657e+07
       70.151  1.20765e+07
      70.0081  1.25016e+07
      69.8651  1.29417e+07
      69.7222  1.33971e+07
      69.5792  1.38685e+07
      69.4363  1.43564e+07
      69.2933  1.48613e+07
      69.1504  1.53839e+07
      69.0074  1.59247e+07
      68.8644  1.64844e+07
      68.7215  1.70637e+07
      68.5785  1.76632e+07
      68.4356  1.82837e+07
      68.2926  1.89258e+07
      68.1497  1.95903e+07
      68.0067   2.0278e+07
      67.8638  2.09897e+07
      67.7208  2.17262e+07
      67.5779  2.24884e+07
      67.4349  2.32772e+07
      67.2919  2.40935e+07
       67.149  2.49382e+07
       67.006  2.58124e+07
      66.8631   2.6717e+07
      66.7201  2.76531e+07
      66.5772  2.86218e+07
      66.4342  2.96242e+07
      66.2913  3.06615e+07
      66.1483  3.17349e+07
      66.0053  3.28456e+07
      65.8624  3.39949e+07
      65.7194  3.51843e+07
      65.5765  3.64149e+07
      65.4335  3.76883e+07
      65.2906   3.9006e+07
      65.1476  4.03695e+07
      65.0047  4.17803e+07
      64.8617    4.324e+07
      64.7187  4.47505e+07
      64.5758  4.63134e+07
      64.4328  4.79305e+07
      64.2899  4.96037e+07
      64.1469  5.13349e+07
       64.004  5.31261e+07
       63.861  5.49795e+07
      63.7181  5.68971e+07
      63.5751  5.88811e+07
      63.4321  6.09338e+07
      63.2892  6.30577e+07
      63.1462   6.5255e+07
      63.0033  6.75285e+07
      62.8603  6.98806e+07
      62.7174  7.23141e+07
      62.5744  7.48318e+07
      62.4315  7.74365e+07
      62.2885  8.01313e+07
      62.1455  8.29192e+07
      62.0026  8.58035e+07
      61.8596  8.87875e+07
      61.7167  9.18745e+07
      61.5737  9.50681e+07
      61.4308   9.8372e+07
      61.2878   1.0179e+08
      61.1449  1.05326e+08
      61.0019  1.08984e+08
       60.859  1.12768e+08
       60.716  1.16682e+08
       60.573  1.20732e+08
      60.4301  1.24921e+08
      60.2871  1.29254e+08
      60.1442  1.33737e+08
      60.0012  1.38374e+08
      59.8583   1.4317e+08
      59.7153  1.48132e+08
      59.5724  1.53265e+08
      59.4294  1.58574e+08
      59.2864  1.64065e+08
      59.1435  1.69746e+08
      59.0005  1.75622e+08
      58.8576    1.817e+08
      58.7146  1.87987e+08
      58.5717  1.94489e+08
      58.4287  2.01215e+08
      58.2858  2.08173e+08
      58.1428  2.15368e+08
      57.9998  2.22811e+08
      57.8569  2.30509e+08
      57.7139  2.38472e+08
       57.571  2.46707e+08
       57.428  2.55225e+08
      57.2851  2.64034e+08
      57.1421  2.73146e+08
      56.9992  2.82569e+08
      56.8562  2.92316e+08
      56.7132  3.02396e+08
      56.5703  3.12821e+08
      56.4273  3.23603e+08
      56.2844  3.34754e+08
      56.1414  3.46286e+08
      55.9985  3.58213e+08
      55.8555  3.70548e+08
      55.7126  3.83304e+08
      55.5696  3.96495e+08
      55.4266  4.10138e+08
      55.2837  4.24246e+08
      55.1407  4.38837e+08
      54.9978  4.53925e+08
      54.8548  4.69528e+08
      54.7119  4.85663e+08
      54.5689  5.02349e+08
       54.426  5.19604e+08
       54.283  5.37446e+08
        54.14  5.55897e+08
      53.9971  5.74977e+08
      53.8541  5.94706e+08
      53.7112  6.15108e+08
      53.5682  6.36203e+08
      53.4253  6.58017e+08
      53.2823  6.80573e+08
      53.1394  7.03896e+08
      52.9964  7.28013e+08
      52.8535  7.52949e+08
      52.7105  7.78732e+08
      52.5675  8.05392e+08
      52.4246  8.32958e+08
      52.2816  8.61459e+08
      52.1387  8.90928e+08
      51.9957  9.21398e+08
      51.8528  9.52901e+08
      51.7098  9.85473e+08
      51.5669  1.01915e+09
      51.4239  1.05397e+09
      51.2809  1.08997e+09
       51.138  1.12718e+09
       50.995  1.16566e+09
      50.8521  1.20545e+09
      50.7091  1.24657e+09
      50.5662  1.28909e+09
      50.4232  1.33305e+09
      50.2803   1.3785e+09
      50.1373  1.42548e+09
      49.9943  1.47406e+09
      49.8514  1.52427e+09
      49.7084  1.57618e+09
      49.5655  1.62985e+09
      49.4225  1.68532e+09
      49.2796  1.74267e+09
      49.1366  1.80195e+09
      48.9937  1.86324e+09
      48.8507  1.92659e+09
      48.7077  1.99208e+09
      48.5648  2.05978e+09
      48.4218  2.12975e+09
      48.2789  2.20209e+09
      48.1359  2.27686e+09
       47.993  2.35415e+09
        47.85  2.43404e+09
      47.7071  2.51662e+09
      47.5641  2.60198e+09
      47.4211  2.69021e+09
      47.2782   2.7814e+09
      47.1352  2.87566e+09
      46.9923  2.97309e+09
      46.8493  3.07379e+09
      46.7064  3.17787e+09
      46.5634  3.28545e+09
      46.4205  3.39663e+09
      46.2775  3.51155e+09
      46.1345  3.63032e+09
      45.9916  3.75308e+09
      45.8486  3.87995e+09
      45.7057  4.01107e+09
      45.5627  4.14659e+09
      45.4198  4.28664e+09
      45.2768  4.43138e+09
      45.1339  4.58097e+09
      44.9909  4.73556e+09
       44.848  4.89532e+09
       44.705  5.06043e+09
       44.562  5.23106e+09
      44.4191  5.40738e+09
      44.2761   5.5896e+09
      44.1332  5.77791e+09
      43.9902   5.9725e+09
      43.8473  6.17359e+09
      43.7043  6.38138e+09
      43.5614  6.59611e+09
      43.4184    6.818e+09
      43.2754  7.04729e+09
      43.1325  7.28422e+09
      42.9895  7.52904e+09
      42.8466  7.78202e+09
      42.7036  8.04341e+09
      42.5607  8.31351e+09
      42.4177   8.5926e+09
      42.2748  8.88097e+09
      42.1318  9.17892e+09
      41.9888  9.48679e+09
      41.8459  9.80488e+09
      41.7029  1.01335e+10
        41.56  1.04731e+10
       41.417   1.0824e+10
      41.2741  1.11865e+10
      41.1311   1.1561e+10
      40.9882  1.19479e+10
      40.8452  1.23477e+10
      40.7022  1.27607e+10
      40.5593  1.31874e+10
      40.4163  1.36282e+10
      40.2734  1.40837e+10
      40.1304  1.45542e+10
      39.9875  1.50403e+10
      39.8445  1.55424e+10
      39.7016  1.60612e+10
      39.5586  1.65971e+10
      39.4156  1.71507e+10
      39.2727  1.77227e+10
      39.1297  1.83135e+10
      38.9868  1.89238e+10
