Temperature = 1206.37K
THERMAL DISTRIBUTIONS:
  E, kcal/mol           W1
      109.381  0.000124665
      109.238  0.000131333
      109.095  0.000138358
      108.952  0.000145758
      108.809  0.000153553
      108.666  0.000161765
      108.523  0.000170414
       108.38  0.000179525
      108.237  0.000189122
      108.094  0.000199232
      107.951  0.000209881
      107.808  0.000221097
      107.665  0.000232913
      107.522  0.000245358
      107.379  0.000258467
      107.237  0.000272275
      107.094   0.00028682
      106.951   0.00030214
      106.808  0.000318277
      106.665  0.000335274
      106.522  0.000353177
      106.379  0.000372034
      106.236  0.000391896
      106.093  0.000412817
       105.95  0.000434852
      105.807  0.000458061
      105.664  0.000482507
      105.521  0.000508254
      105.378  0.000535373
      105.235  0.000563936
      105.092   0.00059402
      104.949  0.000625706
      104.806  0.000659079
      104.663  0.000694228
       104.52  0.000731249
      104.377  0.000770239
      104.234  0.000811305
      104.092  0.000854555
      103.949  0.000900107
      103.806  0.000948083
      103.663   0.00099861
       103.52   0.00105183
      103.377   0.00110787
      103.234    0.0011669
      103.091   0.00122906
      102.948   0.00129453
      102.805   0.00136348
      102.662    0.0014361
      102.519   0.00151257
      102.376   0.00159311
      102.233   0.00167793
       102.09   0.00176726
      101.947   0.00186133
      101.804    0.0019604
      101.661   0.00206473
      101.518   0.00217461
      101.375   0.00229032
      101.232   0.00241217
      101.089   0.00254049
      100.946   0.00267563
      100.804   0.00281794
      100.661   0.00296781
      100.518   0.00312563
      100.375   0.00329182
      100.232   0.00346684
      100.089   0.00365114
      99.9458   0.00384521
      99.8028   0.00404959
      99.6599    0.0042648
      99.5169   0.00449143
       99.374   0.00473007
       99.231   0.00498137
      99.0881   0.00524599
      98.9451   0.00552465
      98.8022   0.00581807
      98.6592   0.00612704
      98.5162   0.00645239
      98.3733   0.00679498
      98.2303   0.00715573
      98.0874   0.00753558
      97.9444   0.00793556
      97.8015   0.00835672
      97.6585   0.00880019
      97.5156   0.00926715
      97.3726   0.00975883
      97.2296    0.0102765
      97.0867    0.0108217
      96.9437    0.0113956
      96.8008        0.012
      96.6578    0.0126363
      96.5149    0.0133063
      96.3719    0.0140118
       96.229    0.0147546
       96.086    0.0155367
      95.9431    0.0163601
      95.8001    0.0172271
      95.6571      0.01814
      95.5142    0.0191011
      95.3712     0.020113
      95.2283    0.0211784
      95.0853    0.0223002
      94.9424    0.0234812
      94.7994    0.0247246
      94.6565    0.0260338
      94.5135    0.0274121
      94.3705    0.0288632
      94.2276     0.030391
      94.0846    0.0319995
      93.9417    0.0336929
      93.7987    0.0354758
      93.6558    0.0373528
      93.5128    0.0393288
      93.3699    0.0414092
      93.2269    0.0435994
      93.0839    0.0459052
       92.941    0.0483327
       92.798    0.0508882
      92.6551    0.0535786
      92.5121    0.0564109
      92.3692    0.0593926
      92.2262    0.0625315
      92.0833     0.065836
      91.9403    0.0693147
      91.7973    0.0729769
      91.6544     0.076832
      91.5114    0.0808904
      91.3685    0.0851627
      91.2255    0.0896601
      91.0826    0.0943945
      90.9396    0.0993783
      90.7967     0.104625
      90.6537     0.110147
      90.5107     0.115961
      90.3678     0.122081
      90.2248     0.128523
      90.0819     0.135304
      89.9389     0.142442
       89.796     0.149956
       89.653     0.157865
      89.5101     0.166191
      89.3671     0.174954
      89.2242     0.184179
      89.0812     0.193889
      88.9382     0.204109
      88.7953     0.214868
      88.6523     0.226192
      88.5094     0.238111
      88.3664     0.250657
      88.2235     0.263863
      88.0805     0.277762
      87.9376     0.292392
      87.7946     0.307791
      87.6516        0.324
      87.5087     0.341059
      87.3657     0.359015
      87.2228     0.377914
      87.0798     0.397805
      86.9369     0.418741
      86.7939     0.440777
       86.651     0.463969
       86.508     0.488378
       86.365     0.514069
      86.2221     0.541108
      86.0791     0.569566
      85.9362     0.599516
      85.7932     0.631038
      85.6503     0.664214
      85.5073      0.69913
      85.3644     0.735876
      85.2214      0.77455
      85.0784     0.815251
      84.9355     0.858085
      84.7925     0.903165
      84.6496     0.950607
      84.5066      1.00054
      84.3637      1.05308
      84.2207      1.10838
      84.0778      1.16657
      83.9348      1.22781
      83.7918      1.29226
      83.6489      1.36009
      83.5059      1.43146
       83.363      1.50657
        83.22      1.58562
      83.0771       1.6688
      82.9341      1.75633
      82.7912      1.84844
      82.6482      1.94538
      82.5052      2.04738
      82.3623      2.15472
      82.2193      2.26767
      82.0764      2.38653
      81.9334       2.5116
      81.7905      2.64321
      81.6475       2.7817
      81.5046      2.92743
      81.3616      3.08078
      81.2187      3.24213
      81.0757      3.41192
      80.9327      3.59057
      80.7898      3.77856
      80.6468      3.97637
      80.5039       4.1845
      80.3609       4.4035
       80.218      4.63393
       80.075      4.87639
      79.9321      5.13151
      79.7891      5.39993
      79.6461      5.68237
      79.5032      5.97953
      79.3602       6.2922
      79.2173      6.62118
      79.0743      6.96731
      78.9314      7.33149
      78.7884      7.71465
      78.6455      8.11779
      78.5025      8.54194
      78.3595       8.9882
      78.2166      9.45771
      78.0736      9.95168
      77.9307      10.4714
      77.7877      11.0182
      77.6448      11.5934
      77.5018      12.1986
      77.3589      12.8353
      77.2159      13.5052
      77.0729      14.2099
        76.93      14.9513
       76.787      15.7313
      76.6441      16.5519
      76.5011      17.4151
      76.3582      18.3233
      76.2152      19.2787
      76.0723      20.2838
      75.9293      21.3411
      75.7863      22.4534
      75.6434      23.6236
      75.5004      24.8545
      75.3575      26.1494
      75.2145      27.5116
      75.0716      28.9446
      74.9286       30.452
      74.7857      32.0377
      74.6427      33.7057
      74.4997      35.4604
      74.3568      37.3061
      74.2138      39.2477
      74.0709        41.29
      73.9279      43.4383
       73.785      45.6981
       73.642      48.0751
      73.4991      50.5755
      73.3561      53.2055
      73.2132      55.9719
      73.0702      58.8817
      72.9272      61.9424
      72.7843      65.1618
      72.6413       68.548
      72.4984      72.1097
      72.3554      75.8559
      72.2125      79.7963
      72.0695      83.9407
      71.9266      88.2998
      71.7836      92.8846
      71.6406      97.7068
      71.4977      102.779
      71.3547      108.113
      71.2118      113.723
      71.0688      119.624
      70.9259       125.83
      70.7829      132.357
        70.64      139.222
       70.497      146.442
       70.354      154.035
      70.2111      162.021
      70.0681      170.419
      69.9252      179.252
      69.7822      188.541
      69.6393       198.31
      69.4963      208.584
      69.3534      219.389
      69.2104      230.751
      69.0674      242.701
      68.9245      255.267
      68.7815      268.482
      68.6386      282.379
      68.4956      296.994
      68.3527      312.362
      68.2097      328.524
      68.0668      345.519
      67.9238      363.391
      67.7808      382.185
      67.6379      401.948
      67.4949      422.729
       67.352      444.582
       67.209      467.562
      67.0661      491.725
      66.9231      517.134
      66.7802      543.851
      66.6372      571.945
      66.4943      601.485
      66.3513      632.547
      66.2083      665.208
      66.0654       699.55
      65.9224       735.66
      65.7795      773.629
      65.6365      813.551
      65.4936      855.526
      65.3506      899.661
      65.2077      946.066
      65.0647      994.857
      64.9217      1046.16
      64.7788      1100.09
      64.6358       1156.8
      64.4929      1216.43
      64.3499      1279.11
       64.207      1345.02
       64.064      1414.31
      63.9211      1487.17
      63.7781      1563.76
      63.6351      1644.28
      63.4922      1728.94
      63.3492      1817.95
      63.2063      1911.52
      63.0633      2009.89
      62.9204      2113.31
      62.7774      2222.03
      62.6345      2336.33
      62.4915      2456.49
      62.3485      2582.81
      62.2056      2715.61
      62.0626      2855.21
      61.9197      3001.97
      61.7767      3156.24
      61.6338      3318.42
      61.4908       3488.9
      61.3479      3668.12
      61.2049      3856.51
      61.0619      4054.55
       60.919      4262.72
       60.776      4481.54
      60.6331      4711.57
      60.4901      4953.36
      60.3472      5207.52
      60.2042      5474.67
      60.0613      5755.49
      59.9183      6050.66
      59.7753      6360.93
      59.6324      6687.05
      59.4894      7029.83
      59.3465      7390.13
      59.2035      7768.84
      59.0606      8166.89
      58.9176      8585.26
      58.7747      9024.99
      58.6317      9487.18
      58.4888      9972.95
      58.3458      10483.5
      58.2028      11020.1
      58.0599      11584.1
      57.9169      12176.9
       57.774      12799.9
       57.631      13454.6
      57.4881      14142.7
      57.3451      14865.9
      57.2022        15626
      57.0592      16424.8
      56.9162      17264.3
      56.7733      18146.5
      56.6303      19073.7
      56.4874        20048
      56.3444        21072
      56.2015      22148.1
      56.0585        23279
      55.9156      24467.4
      55.7726      25716.3
      55.6296      27028.7
      55.4867      28407.8
      55.3437      29857.1
      55.2008        31380
      55.0578      32980.4
      54.9149      34662.1
      54.7719      36429.2
       54.629      38286.1
       54.486      40237.3
       54.343      42287.6
      54.2001        44442
      54.0571      46705.8
      53.9142      49084.5
      53.7712      51583.9
      53.6283      54210.1
      53.4853      56969.6
      53.3424      59868.9
      53.1994      62915.4
      53.0564      66116.3
      52.9135      69479.4
      52.7705        73013
      52.6276      76725.7
      52.4846      80626.5
      52.3417      84724.8
      52.1987      89030.8
      52.0558      93554.7
      51.9128      98307.7
      51.7698       103301
      51.6269       108548
      51.4839       114059
       51.341       119850
       51.198       125934
      51.0551       132325
      50.9121       139039
      50.7692       146093
      50.6262       153503
      50.4833       161288
      50.3403       169466
      50.1973       178057
      50.0544       187082
      49.9114       196563
      49.7685       206522
      49.6255       216984
      49.4826       227974
      49.3396       239519
      49.1967       251646
      49.0537       264384
      48.9107       277765
      48.7678       291821
      48.6248       306585
      48.4819       322093
      48.3389       338383
       48.196       355493
       48.053       373465
      47.9101       392343
      47.7671       412170
      47.6241       432996
      47.4812       454870
      47.3382       477845
      47.1953       501975
      47.0523       527320
      46.9094       553939
      46.7664       581896
      46.6235       611259
      46.4805       642097
      46.3375       674485
      46.1946       708501
      46.0516       744224
      45.9087       781742
      45.7657       821144
      45.6228       862524
      45.4798       905980
      45.3369       951617
      45.1939       999544
      45.0509  1.04987e+06
       44.908  1.10273e+06
       44.765  1.15823e+06
      44.6221  1.21652e+06
      44.4791  1.27773e+06
      44.3362  1.34201e+06
      44.1932   1.4095e+06
      44.0503  1.48038e+06
      43.9073   1.5548e+06
      43.7643  1.63296e+06
      43.6214  1.71502e+06
      43.4784  1.80119e+06
      43.3355  1.89167e+06
      43.1925  1.98668e+06
      43.0496  2.08644e+06
      42.9066  2.19119e+06
      42.7637  2.30118e+06
      42.6207  2.41666e+06
      42.4778  2.53792e+06
      42.3348  2.66523e+06
      42.1918   2.7989e+06
      42.0489  2.93925e+06
      41.9059  3.08661e+06
       41.763  3.24132e+06
        41.62  3.40375e+06
      41.4771  3.57429e+06
      41.3341  3.75334e+06
      41.1912  3.94131e+06
      41.0482  4.13866e+06
      40.9052  4.34585e+06
      40.7623  4.56337e+06
      40.6193  4.79173e+06
      40.4764  5.03146e+06
      40.3334  5.28314e+06
      40.1905  5.54735e+06
      40.0475  5.82472e+06
      39.9046  6.11589e+06
      39.7616  6.42155e+06
      39.6186  6.74243e+06
      39.4757  7.07926e+06
      39.3327  7.43285e+06
      39.1898  7.80403e+06
      39.0468  8.19365e+06
      38.9039  8.60264e+06
      38.7609  9.03196e+06
       38.618   9.4826e+06
       38.475  9.95563e+06
       38.332  1.04521e+07
      38.1891  1.09733e+07
      38.0461  1.15204e+07
      37.9032  1.20945e+07
      37.7602  1.26972e+07
      37.6173  1.33298e+07
      37.4743  1.39937e+07
      37.3314  1.46906e+07
      37.1884   1.5422e+07
      37.0454  1.61896e+07
      36.9025  1.69953e+07
      36.7595  1.78409e+07
      36.6166  1.87283e+07
      36.4736  1.96598e+07
      36.3307  2.06373e+07
      36.1877  2.16632e+07
      36.0448  2.27398e+07
      35.9018  2.38697e+07
      35.7589  2.50555e+07
      35.6159  2.62999e+07
      35.4729  2.76059e+07
        35.33  2.89763e+07
       35.187  3.04145e+07
      35.0441  3.19237e+07
      34.9011  3.35075e+07
      34.7582  3.51695e+07
      34.6152  3.69135e+07
      34.4723  3.87435e+07
      34.3293  4.06639e+07
      34.1863   4.2679e+07
      34.0434  4.47935e+07
      33.9004  4.70122e+07
      33.7575  4.93402e+07
      33.6145  5.17831e+07
      33.4716  5.43462e+07
      33.3286  5.70356e+07
      33.1857  5.98575e+07
      33.0427  6.28182e+07
      32.8997  6.59248e+07
      32.7568  6.91841e+07
      32.6138  7.26038e+07
      32.4709  7.61918e+07
      32.3279  7.99561e+07
       32.185  8.39055e+07
       32.042   8.8049e+07
      31.8991  9.23961e+07
      31.7561  9.69568e+07
      31.6131  1.01741e+08
      31.4702  1.06761e+08
      31.3272  1.12027e+08
      31.1843  1.17551e+08
      31.0413  1.23347e+08
      30.8984  1.29426e+08
      30.7554  1.35804e+08
      30.6125  1.42495e+08
      30.4695  1.49513e+08
      30.3265  1.56875e+08
      30.1836  1.64598e+08
      30.0406    1.727e+08
      29.8977  1.81197e+08
      29.7547  1.90111e+08
      29.6118  1.99461e+08
      29.4688  2.09269e+08
      29.3259  2.19556e+08
      29.1829  2.30347e+08
      29.0399  2.41664e+08
       28.897  2.53535e+08
       28.754  2.65986e+08
      28.6111  2.79046e+08
      28.4681  2.92743e+08
      28.3252  3.07109e+08
      28.1822  3.22176e+08
      28.0393  3.37978e+08
      27.8963  3.54551e+08
      27.7534  3.71932e+08
      27.6104  3.90161e+08
      27.4674  4.09279e+08
      27.3245  4.29328e+08
      27.1815  4.50355e+08
      27.0386  4.72405e+08
      26.8956  4.95529e+08
      26.7527  5.19779e+08
      26.6097  5.45209e+08
      26.4668  5.71876e+08
      26.3238   5.9984e+08
      26.1808  6.29165e+08
      26.0379  6.59915e+08
      25.8949  6.92159e+08
       25.752   7.2597e+08
       25.609  7.61424e+08
      25.4661  7.98599e+08
      25.3231  8.37579e+08
      25.1802  8.78451e+08
      25.0372  9.21307e+08
      24.8942  9.66241e+08
      24.7513  1.01335e+09
      24.6083  1.06275e+09
      24.4654  1.11454e+09
      24.3224  1.16884e+09
      24.1795  1.22578e+09
      24.0365  1.28547e+09
      23.8936  1.34804e+09
      23.7506  1.41365e+09
      23.6076  1.48243e+09
      23.4647  1.55454e+09
      23.3217  1.63014e+09
      23.1788  1.70939e+09
      23.0358  1.79247e+09
      22.8929  1.87957e+09
      22.7499  1.97087e+09
       22.607  2.06658e+09
       22.464  2.16692e+09
       22.321  2.27209e+09
      22.1781  2.38234e+09
      22.0351  2.49791e+09
      21.8922  2.61905e+09
      21.7492  2.74603e+09
      21.6063  2.87913e+09
      21.4633  3.01864e+09
      21.3204  3.16487e+09
      21.1774  3.31814e+09
      21.0344  3.47879e+09
      20.8915  3.64717e+09
      20.7485  3.82365e+09
      20.6056  4.00862e+09
      20.4626  4.20248e+09
      20.3197  4.40566e+09
      20.1767   4.6186e+09
      20.0338  4.84177e+09
      19.8908  5.07566e+09
      19.7479  5.32077e+09
      19.6049  5.57765e+09
      19.4619  5.84685e+09
       19.319  6.12896e+09
       19.176   6.4246e+09
      19.0331  6.73441e+09
      18.8901  7.05907e+09
      18.7472  7.39927e+09
      18.6042  7.75577e+09
      18.4613  8.12934e+09
      18.3183  8.52078e+09
      18.1753  8.93096e+09
      18.0324  9.36075e+09
      17.8894  9.81109e+09
      17.7465   1.0283e+10
      17.6035  1.07774e+10
      17.4606  1.12954e+10
      17.3176  1.18382e+10
      17.1747  1.24068e+10
      17.0317  1.30027e+10
      16.8887  1.36269e+10
      16.7458  1.42809e+10
      16.6028  1.49661e+10
      16.4599   1.5684e+10
      16.3169   1.6436e+10
       16.174  1.72239e+10
       16.031  1.80493e+10
      15.8881   1.8914e+10
      15.7451  1.98198e+10
      15.6021  2.07687e+10
      15.4592  2.17628e+10
      15.3162  2.28041e+10
      15.1733  2.38949e+10
      15.0303  2.50375e+10
      14.8874  2.62343e+10
      14.7444   2.7488e+10
      14.6015  2.88012e+10
      14.4585  3.01767e+10
      14.3155  3.16174e+10
      14.1726  3.31265e+10
      14.0296  3.47071e+10
      13.8867  3.63625e+10
      13.7437  3.80964e+10
      13.6008  3.99123e+10
      13.4578  4.18142e+10
      13.3149  4.38061e+10
      13.1719  4.58923e+10
       13.029   4.8077e+10
       12.886   5.0365e+10
       12.743  5.27612e+10
      12.6001  5.52705e+10
      12.4571  5.78983e+10
      12.3142  6.06501e+10
      12.1712  6.35318e+10
      12.0283  6.65495e+10
      11.8853  6.97094e+10
      11.7424  7.30182e+10
      11.5994   7.6483e+10
      11.4564  8.01109e+10
      11.3135  8.39097e+10
      11.1705  8.78873e+10
      11.0276  9.20521e+10
      10.8846  9.64127e+10
      10.7417  1.00978e+11
      10.5987  1.05759e+11
      10.4558  1.10764e+11
      10.3128  1.16004e+11
      10.1698   1.2149e+11
      10.0269  1.27233e+11
      9.88393  1.33246e+11
      9.74098  1.39541e+11
      9.59802  1.46131e+11
      9.45507   1.5303e+11
      9.31211  1.60252e+11
      9.16916  1.67813e+11
       9.0262  1.75727e+11
      8.88325  1.84012e+11
      8.74029  1.92684e+11
      8.59733  2.01762e+11
      8.45438  2.11264e+11
      8.31142   2.2121e+11
      8.16847  2.31621e+11
      8.02551  2.42518e+11
      7.88256  2.53923e+11
       7.7396  2.65861e+11
      7.59665  2.78355e+11
      7.45369  2.91432e+11
      7.31074  3.05118e+11
      7.16778  3.19442e+11
      7.02483  3.34433e+11
      6.88187  3.50121e+11
      6.73892   3.6654e+11
      6.59596  3.83723e+11
        6.453  4.01704e+11
      6.31005  4.20521e+11
      6.16709  4.40212e+11
      6.02414  4.60818e+11
      5.88118   4.8238e+11
      5.73823  5.04943e+11
      5.59527  5.28553e+11
      5.45232  5.53257e+11
      5.30936  5.79107e+11
      5.16641  6.06154e+11
      5.02345  6.34453e+11
       4.8805  6.64063e+11
      4.73754  6.95043e+11
      4.59458  7.27456e+11
      4.45163  7.61367e+11
      4.30867  7.96846e+11
      4.16572  8.33964e+11
      4.02276  8.72796e+11
