Temperature = 300.153K
THERMAL DISTRIBUTIONS:
  E, kcal/mol           W1
      37.3485   6.0917e-34
      37.2056  7.65651e-34
      37.0626  9.62318e-34
      36.9196  1.20949e-33
      36.7767  1.52013e-33
      36.6337  1.91054e-33
      36.4908  2.40118e-33
      36.3478   3.0178e-33
      36.2049  3.79272e-33
      36.0619  4.76658e-33
       35.919  5.99044e-33
       35.776  7.52845e-33
       35.633  9.46125e-33
      35.4901  1.18901e-32
      35.3471  1.49424e-32
      35.2042   1.8778e-32
      35.0612  2.35979e-32
      34.9183  2.96546e-32
      34.7753  3.72655e-32
      34.6324  4.68292e-32
      34.4894  5.88468e-32
      34.3465  7.39475e-32
      34.2035  9.29223e-32
      34.0605  1.16765e-31
      33.9176  1.46723e-31
      33.7746  1.84366e-31
      33.6317  2.31664e-31
      33.4887  2.91092e-31
      33.3458  3.65762e-31
      33.2028  4.59581e-31
      33.0599  5.77459e-31
      32.9169  7.25563e-31
      32.7739  9.11641e-31
       32.631  1.14543e-30
       32.488  1.43916e-30
      32.3451  1.80818e-30
      32.2021  2.27181e-30
      32.0592  2.85429e-30
      31.9162  3.58607e-30
      31.7733  4.50541e-30
      31.6303  5.66037e-30
      31.4873  7.11133e-30
      31.3444  8.93412e-30
      31.2014   1.1224e-29
      31.0585  1.41007e-29
      30.9155  1.77144e-29
      30.7726   2.2254e-29
      30.6296  2.79566e-29
      30.4867  3.51201e-29
      30.3437  4.41187e-29
      30.2007  5.54223e-29
      30.0578  6.96213e-29
      29.9148  8.74569e-29
      29.7719   1.0986e-28
      29.6289  1.38001e-28
       29.486  1.73349e-28
       29.343  2.17747e-28
      29.2001  2.73514e-28
      29.0571  3.43559e-28
      28.9141  4.31538e-28
      28.7712   5.4204e-28
      28.6282  6.80829e-28
      28.4853  8.55146e-28
      28.3423  1.07408e-27
      28.1994  1.34905e-27
      28.0564   1.6944e-27
      27.9135  2.12813e-27
      27.7705  2.67285e-27
      27.6276  3.35696e-27
      27.4846  4.21611e-27
      27.3416  5.29509e-27
      27.1987  6.65012e-27
      27.0557  8.35181e-27
      26.9128  1.04888e-26
      26.7698  1.31725e-26
      26.6269  1.65426e-26
      26.4839  2.07746e-26
       26.341  2.60891e-26
       26.198  3.27626e-26
       26.055  4.11427e-26
      25.9121  5.16657e-26
      25.7691  6.48793e-26
      25.6262  8.14714e-26
      25.4832  1.02306e-25
      25.3403  1.28466e-25
      25.1973  1.61313e-25
      25.0544  2.02557e-25
      24.9114  2.54344e-25
      24.7684  3.19365e-25
      24.6255  4.01005e-25
      24.4825  5.03508e-25
      24.3396  6.32204e-25
      24.1966  7.93785e-25
      24.0537  9.96651e-25
      23.9107  1.25135e-24
      23.7678  1.57111e-24
      23.6248  1.97257e-24
      23.4818  2.47657e-24
      23.3389  3.10931e-24
      23.1959  3.90366e-24
       23.053  4.90088e-24
        22.91  6.15278e-24
      22.7671  7.72436e-24
      22.6241  9.69725e-24
      22.4812  1.21739e-23
      22.3382  1.52828e-23
      22.1952  1.91855e-23
      22.0523  2.40845e-23
      21.9093   3.0234e-23
      21.7664  3.79532e-23
      21.6234  4.76426e-23
      21.4805   5.9805e-23
      21.3375  7.50712e-23
      21.1946  9.42332e-23
      21.0516  1.18285e-22
      20.9086  1.48473e-22
      20.7657  1.86364e-22
      20.6227  2.33921e-22
      20.4798   2.9361e-22
      20.3368  3.68525e-22
      20.1939  4.62549e-22
      20.0509  5.80555e-22
       19.908  7.28656e-22
       19.765  9.14526e-22
      19.6221  1.14779e-21
      19.4791  1.44054e-21
      19.3361  1.80793e-21
      19.1932  2.26899e-21
      19.0502  2.84759e-21
      18.9073  3.57369e-21
      18.7643  4.48487e-21
      18.6214   5.6283e-21
      18.4784  7.06315e-21
      18.3355  8.86369e-21
      18.1925  1.11231e-20
      18.0495  1.39582e-20
      17.9066  1.75156e-20
      17.7636  2.19795e-20
      17.6207  2.75806e-20
      17.4777  3.46086e-20
      17.3348  4.34269e-20
      17.1918  5.44913e-20
      17.0489  6.83737e-20
      16.9059  8.57917e-20
      16.7629  1.07645e-19
        16.62  1.35064e-19
       16.477  1.69464e-19
      16.3341  2.12623e-19
      16.1911   2.6677e-19
      16.0482  3.34701e-19
      15.9052  4.19924e-19
      15.7623   5.2684e-19
      15.6193  6.60968e-19
      15.4763  8.29232e-19
      15.3334  1.04032e-18
      15.1904  1.30512e-18
      15.0475  1.63729e-18
      14.9045  2.05398e-18
      14.7616  2.57669e-18
      14.6186  3.23237e-18
      14.4757  4.05483e-18
      14.3327   5.0865e-18
      14.1897  6.38057e-18
      14.0468  8.00374e-18
      13.9038  1.00397e-17
      13.7609  1.25934e-17
      13.6179  1.57963e-17
       13.475  1.98137e-17
       13.332  2.48523e-17
      13.1891  3.11719e-17
      13.0461  3.90978e-17
      12.9031  4.90383e-17
      12.7602  6.15053e-17
      12.6172  7.71405e-17
      12.4743   9.6749e-17
      12.3313   1.2134e-16
      12.1884  1.52179e-16
      12.0454  1.90853e-16
      11.9025  2.39352e-16
      11.7595  3.00171e-16
      11.6166  3.76438e-16
      11.4736  4.72076e-16
      11.3306  5.92003e-16
      11.1877  7.42386e-16
      11.0447  9.30954e-16
      10.9018   1.1674e-15
      10.7588  1.46388e-15
      10.6159  1.83563e-15
      10.4729  2.30175e-15
        10.33  2.88618e-15
       10.187  3.61895e-15
       10.044  4.53769e-15
      9.90109  5.68959e-15
      9.75813  7.13378e-15
      9.61518  8.94442e-15
      9.47222  1.12144e-14
      9.32927  1.40604e-14
      9.18631  1.76282e-14
      9.04336  2.21011e-14
       8.9004  2.77084e-14
      8.75744  3.47379e-14
      8.61449    4.355e-14
      8.47153  5.45967e-14
      8.32858  6.84443e-14
      8.18562  8.58028e-14
      8.04267  1.07562e-13
      7.89971  1.34837e-13
      7.75676  1.69025e-13
       7.6138  2.11879e-13
      7.47085  2.65594e-13
      7.32789   3.3292e-13
      7.18494  4.17307e-13
      7.04198  5.23075e-13
      6.89903   6.5564e-13
      6.75607  8.21788e-13
      6.61311  1.03002e-12
      6.47016    1.291e-12
       6.3272  1.61808e-12
      6.18425  2.02799e-12
      6.04129   2.5417e-12
      5.89834  3.18549e-12
      5.75538  3.99228e-12
      5.61243  5.00332e-12
      5.46947   6.2703e-12
      5.32652  7.85799e-12
      5.18356  9.84753e-12
      5.04061  1.23406e-11
      4.89765  1.54645e-11
      4.75469   1.9379e-11
      4.61174  2.42838e-11
      4.46878  3.04296e-11
      4.32583  3.81301e-11
      4.18287  4.77785e-11
      4.03992  5.98672e-11
      3.89696  7.50134e-11
      3.75401  9.39898e-11
      3.61105  1.17765e-10
       3.4681  1.47551e-10
      3.32514  1.84868e-10
      3.18219  2.31619e-10
      3.03923  2.90188e-10
      2.89628   3.6356e-10
      2.75332  4.55476e-10
      2.61036  5.70621e-10
      2.46741  7.14862e-10
      2.32445  8.95548e-10
       2.1815  1.12188e-09
      2.03854   1.4054e-09
      1.89559  1.76053e-09
      1.75263  2.20536e-09
      1.60968  2.76254e-09
      1.46672  3.46042e-09
      1.32377  4.33453e-09
      1.18081  5.42935e-09
      1.03786  6.80057e-09
       0.8949  8.51795e-09
     0.751945  1.06688e-08
      0.60899  1.33626e-08
     0.466034  1.67362e-08
     0.323079  2.09612e-08
     0.180124  2.62522e-08
    0.0371684  3.28782e-08
    -0.105787  4.11759e-08
    -0.248742  5.15667e-08
    -0.391698  6.45784e-08
    -0.534653   8.0872e-08
    -0.677608  1.01275e-07
    -0.820564  1.26822e-07
    -0.963519  1.58811e-07
     -1.10647  1.98865e-07
     -1.24943  2.49017e-07
     -1.39239  3.11811e-07
     -1.53534  3.90431e-07
      -1.6783  4.88866e-07
     -1.82125  6.12107e-07
     -1.96421  7.66401e-07
     -2.10716  9.59571e-07
     -2.25012  1.20141e-06
     -2.39307  1.50416e-06
     -2.53603  1.88317e-06
     -2.67898  2.35764e-06
     -2.82194   2.9516e-06
     -2.96489  3.69512e-06
     -3.10785  4.62585e-06
      -3.2508   5.7909e-06
     -3.39376  7.24923e-06
     -3.53672  9.07464e-06
     -3.67967  1.13595e-05
     -3.82263  1.42193e-05
     -3.96558  1.77988e-05
     -4.10854  2.22789e-05
     -4.25149  2.78861e-05
     -4.39445  3.49039e-05
      -4.5374   4.3687e-05
     -4.68036   5.4679e-05
     -4.82331  6.84353e-05
     -4.96627  8.56509e-05
     -5.10922  0.000107195
     -5.25218  0.000134155
     -5.39513  0.000167893
     -5.53809  0.000210111
     -5.68105   0.00026294
       -5.824  0.000329045
     -5.96696  0.000411761
     -6.10991  0.000515259
     -6.25287   0.00064476
     -6.39582  0.000806791
     -6.53878   0.00100952
     -6.68173   0.00126317
     -6.82469   0.00158051
     -6.96764   0.00197753
      -7.1106   0.00247424
     -7.25355   0.00309565
     -7.39651   0.00387304
     -7.53946   0.00484555
     -7.68242   0.00606212
     -7.82538   0.00758398
     -7.96833   0.00948769
     -8.11129     0.011869
     -8.25424    0.0148477
      -8.3972    0.0185735
     -8.54015    0.0232338
     -8.68311    0.0290628
     -8.82606    0.0363534
     -8.96902    0.0454719
     -9.11197    0.0568763
     -9.25493    0.0711394
     -9.39788    0.0889775
     -9.54084     0.111286
      -9.6838     0.139184
     -9.82675     0.174073
     -9.96971     0.217702
     -10.1127      0.27226
     -10.2556     0.340484
     -10.3986     0.425793
     -10.5415     0.532466
     -10.6845     0.665848
     -10.8274     0.832623
     -10.9704      1.04115
     -11.1133      1.30187
     -11.2563      1.62784
     -11.3993      2.03538
     -11.5422      2.54489
     -11.6852      3.18188
     -11.8281      3.97822
     -11.9711      4.97375
      -12.114      6.21826
      -12.257      7.77398
     -12.3999       9.7187
     -12.5429      12.1496
     -12.6859      15.1882
     -12.8288      18.9863
     -12.9718      23.7336
     -13.1147      29.6673
     -13.2577      37.0835
     -13.4006      46.3526
     -13.5436      57.9371
     -13.6865      72.4151
     -13.8295      90.5089
     -13.9725      113.121
     -14.1154      141.379
     -14.2584      176.691
     -14.4013      220.818
     -14.5443      275.958
     -14.6872       344.86
     -14.8302      430.955
     -14.9731       538.53
     -15.1161      672.941
     -15.2591       840.88
      -15.402       1050.7
      -15.545      1312.85
     -15.6879      1640.37
     -15.8309      2049.53
     -15.9738       2560.7
     -16.1168      3199.27
     -16.2597      3996.99
     -16.4027      4993.48
     -16.5457      6238.25
     -16.6886      7793.13
     -16.8316      9735.29
     -16.9745      12161.2
     -17.1175      15191.1
     -17.2604      18975.5
     -17.4034      23702.1
     -17.5463      29605.2
     -17.6893      36977.5
     -17.8322      46184.5
     -17.9752      57682.5
     -18.1182        72041
     -18.2611      89971.4
     -18.4041       112361
      -18.547       140320
       -18.69       175230
     -18.8329       218820
     -18.9759       273246
     -19.1188       341201
     -19.2618       426044
     -19.4048       531970
     -19.5477       664214
     -19.6907       829311
     -19.8336  1.03542e+06
     -19.9766  1.29271e+06
     -20.1195  1.61389e+06
     -20.2625  2.01482e+06
     -20.4054  2.51529e+06
     -20.5484  3.13997e+06
     -20.6914   3.9197e+06
     -20.8343   4.8929e+06
     -20.9773  6.10758e+06
     -21.1202  7.62357e+06
     -21.2632  9.51559e+06
     -21.4061  1.18768e+07
     -21.5491  1.48236e+07
      -21.692  1.85009e+07
      -21.835  2.30898e+07
      -21.978  2.88162e+07
     -22.1209  3.59617e+07
     -22.2639  4.48777e+07
     -22.4068  5.60026e+07
     -22.5498  6.98834e+07
     -22.6927   8.7202e+07
     -22.8357   1.0881e+08
     -22.9786  1.35767e+08
     -23.1216  1.69398e+08
     -23.2646  2.11354e+08
     -23.4075  2.63694e+08
     -23.5505  3.28986e+08
     -23.6934  4.10432e+08
     -23.8364  5.12027e+08
     -23.9793  6.38751e+08
     -24.1223  7.96814e+08
     -24.2652  9.93962e+08
     -24.4082  1.23985e+09
     -24.5512  1.54652e+09
     -24.6941  1.92899e+09
     -24.8371  2.40597e+09
       -24.98   3.0008e+09
      -25.123  3.74258e+09
     -25.2659  4.66758e+09
     -25.4089  5.82101e+09
     -25.5518  7.25923e+09
     -25.6948  9.05252e+09
     -25.8377  1.12885e+10
     -25.9807  1.40762e+10
     -26.1237  1.75519e+10
     -26.2666  2.18851e+10
     -26.4096  2.72872e+10
     -26.5525  3.40217e+10
     -26.6955  4.24168e+10
     -26.8384  5.28819e+10
     -26.9814  6.59268e+10
     -27.1243  8.21869e+10
     -27.2673  1.02454e+11
     -27.4103  1.27715e+11
     -27.5532  1.59199e+11
     -27.6962  1.98438e+11
     -27.8391   2.4734e+11
     -27.9821  3.08285e+11
      -28.125  3.84233e+11
      -28.268  4.78877e+11
     -28.4109  5.96813e+11
     -28.5539  7.43769e+11
     -28.6969  9.26879e+11
     -28.8398  1.15503e+12
     -28.9828   1.4393e+12
     -29.1257  1.79347e+12
     -29.2687  2.23471e+12
     -29.4116  2.78441e+12
     -29.5546  3.46921e+12
     -29.6975  4.32227e+12
     -29.8405  5.38489e+12
     -29.9835  6.70854e+12
     -30.1264  8.35727e+12
     -30.2694  1.04108e+13
     -30.4123  1.29685e+13
     -30.5553  1.61539e+13
     -30.6982  2.01212e+13
     -30.8412  2.50619e+13
     -30.9841  3.12146e+13
     -31.1271  3.88764e+13
     -31.2701  4.84171e+13
      -31.413   6.0297e+13
      -31.556  7.50889e+13
     -31.6989  9.35062e+13
     -31.8419  1.16437e+14
     -31.9848  1.44986e+14
     -32.1278  1.80528e+14
     -32.2707  2.24775e+14
     -32.4137  2.79857e+14
     -32.5567  3.48425e+14
     -32.6996  4.33777e+14
     -32.8426  5.40015e+14
     -32.9855  6.72247e+14
     -33.1285  8.36833e+14
     -33.2714  1.04167e+15
     -33.4144   1.2966e+15
     -33.5573  1.61386e+15
     -33.7003  2.00867e+15
     -33.8432  2.49997e+15
     -33.9862   3.1113e+15
     -34.1292  3.87196e+15
     -34.2721  4.81842e+15
     -34.4151    5.996e+15
      -34.558  7.46104e+15
      -34.701  9.28368e+15
     -34.8439  1.15511e+16
     -34.9869  1.43719e+16
     -35.1298  1.78807e+16
     -35.2728  2.22453e+16
     -35.4158  2.76741e+16
     -35.5587  3.44264e+16
     -35.7017  4.28244e+16
     -35.8446  5.32688e+16
     -35.9876  6.62576e+16
     -36.1305  8.24109e+16
     -36.2735  1.02498e+17
     -36.4164  1.27476e+17
     -36.5594  1.58535e+17
     -36.7024  1.97153e+17
     -36.8453   2.4517e+17
     -36.9883  3.04867e+17
     -37.1312  3.79083e+17
     -37.2742  4.71347e+17
     -37.4171  5.86046e+17
     -37.5601  7.28621e+17
      -37.703  9.05847e+17
      -37.846  1.12613e+18
      -37.989  1.39992e+18
     -38.1319  1.74021e+18
     -38.2749   2.1631e+18
     -38.4178  2.68863e+18
     -38.5608   3.3417e+18
     -38.7037  4.15322e+18
     -38.8467  5.16155e+18
     -38.9896  6.41441e+18
     -39.1326  7.97104e+18
     -39.2756  9.90505e+18
     -39.4185  1.23077e+19
     -39.5615  1.52925e+19
     -39.7044  1.90002e+19
     -39.8474  2.36058e+19
     -39.9903  2.93265e+19
     -40.1333  3.64316e+19
     -40.2762   4.5256e+19
     -40.4192  5.62158e+19
     -40.5622  6.98268e+19
     -40.7051  8.67289e+19
     -40.8481  1.07718e+20
      -40.991   1.3378e+20
      -41.134  1.66141e+20
     -41.2769   2.0632e+20
     -41.4199  2.56201e+20
     -41.5628  3.18129e+20
     -41.7058   3.9501e+20
     -41.8487  4.90442e+20
     -41.9917  6.08906e+20
     -42.1347  7.55941e+20
     -42.2776  9.38445e+20
     -42.4206  1.16495e+21
     -42.5635  1.44604e+21
     -42.7065  1.79485e+21
     -42.8494   2.2277e+21
     -42.9924  2.76479e+21
     -43.1353  3.43117e+21
     -43.2783  4.25795e+21
     -43.4213  5.28369e+21
     -43.5642  6.55631e+21
     -43.7072  8.13494e+21
     -43.8501  1.00931e+22
     -43.9931   1.2522e+22
      -44.136  1.55347e+22
      -44.279   1.9271e+22
     -44.4219  2.39047e+22
     -44.5649  2.96507e+22
     -44.7079  3.67766e+22
     -44.8508  4.56129e+22
     -44.9938  5.65691e+22
     -45.1367  7.01533e+22
     -45.2797  8.69957e+22
     -45.4226  1.07877e+23
     -45.5656  1.33762e+23
     -45.7085  1.65848e+23
     -45.8515   2.0562e+23
     -45.9945  2.54919e+23
     -46.1374  3.16017e+23
     -46.2804  3.91739e+23
     -46.4233  4.85575e+23
     -46.5663  6.01863e+23
     -46.7092  7.45957e+23
     -46.8522  9.24478e+23
     -46.9951  1.14564e+24
     -47.1381  1.41965e+24
     -47.2811  1.75908e+24
      -47.424  2.17951e+24
      -47.567  2.70025e+24
     -47.7099  3.34526e+24
     -47.8529  4.14419e+24
     -47.9958  5.13351e+24
     -48.1388  6.35866e+24
     -48.2817  7.87571e+24
     -48.4247  9.75414e+24
     -48.5676  1.20798e+25
     -48.7106   1.4959e+25
     -48.8536  1.85229e+25
     -48.9965  2.29354e+25
     -49.1395  2.83974e+25
     -49.2824  3.51577e+25
     -49.4254  4.35248e+25
     -49.5683  5.38809e+25
     -49.7113   6.6698e+25
     -49.8542  8.25574e+25
     -49.9972   1.0218e+26
     -50.1402   1.2646e+26
     -50.2831  1.56501e+26
     -50.4261  1.93663e+26
      -50.569  2.39637e+26
      -50.712    2.965e+26
     -50.8549  3.66847e+26
     -50.9979  4.53847e+26
     -51.1408  5.61431e+26
     -51.2838  6.94458e+26
     -51.4268  8.58949e+26
     -51.5697  1.06234e+27
     -51.7127  1.31376e+27
     -51.8556  1.62455e+27
     -51.9986   2.0088e+27
     -52.1415  2.48382e+27
     -52.2845  3.07083e+27
     -52.4274  3.79639e+27
     -52.5704  4.69301e+27
     -52.7134  5.80096e+27
     -52.8563     7.17e+27
     -52.9993  8.86137e+27
     -53.1422  1.09506e+28
     -53.2852  1.35323e+28
     -53.4281  1.67213e+28
     -53.5711  2.06601e+28
      -53.714  2.55253e+28
      -53.857   3.1535e+28
          -54  3.89576e+28
     -54.1429   4.8123e+28
     -54.2859  5.94386e+28
     -54.4288  7.34108e+28
     -54.5718  9.06629e+28
     -54.7147  1.11956e+29
     -54.8577  1.38243e+29
     -55.0006  1.70687e+29
     -55.1436   2.1074e+29
     -55.2866  2.60162e+29
     -55.4295  3.21147e+29
     -55.5725  3.96377e+29
     -55.7154  4.89188e+29
     -55.8584    6.037e+29
     -56.0013  7.44911e+29
     -56.1443  9.19035e+29
     -56.2872  1.13388e+30
     -56.4302  1.39885e+30
     -56.5731  1.72548e+30
     -56.7161  2.12833e+30
     -56.8591  2.62496e+30
      -57.002  3.23716e+30
      -57.145  3.99188e+30
     -57.2879  4.92197e+30
     -57.4309  6.06798e+30
     -57.5738  7.48108e+30
     -57.7168  9.22206e+30
     -57.8597  1.13672e+31
     -58.0027  1.40105e+31
     -58.1457   1.7268e+31
     -58.2886  2.12817e+31
     -58.4316  2.62254e+31
     -58.5745  3.23132e+31
     -58.7175   3.9812e+31
     -58.8604  4.90481e+31
     -59.0034   6.0415e+31
     -59.1463  7.44128e+31
     -59.2893  9.16469e+31
     -59.4323  1.12868e+32
     -59.5752  1.38981e+32
     -59.7182  1.71127e+32
     -59.8611  2.10663e+32
     -60.0041  2.59307e+32
      -60.147  3.19174e+32
       -60.29  3.92765e+32
     -60.4329  4.83245e+32
     -60.5759  5.94647e+32
     -60.7189  7.31622e+32
     -60.8618  8.99949e+32
     -61.0048  1.10707e+33
     -61.1477  1.36159e+33
     -61.2907  1.67444e+33
     -61.4336  2.05912e+33
     -61.5766   2.5316e+33
     -61.7195  3.11209e+33
     -61.8625  3.82613e+33
     -62.0055  4.70275e+33
     -62.1484  5.77981e+33
     -62.2914  7.10314e+33
     -62.4343  8.72906e+33
     -62.5773  1.07275e+34
     -62.7202  1.31815e+34
     -62.8632  1.61933e+34
     -63.0061  1.98935e+34
     -63.1491  2.44371e+34
     -63.2921   3.0008e+34
      -63.435  3.68485e+34
      -63.578  4.52472e+34
     -63.7209  5.55549e+34
     -63.8639  6.81962e+34
     -64.0068   8.3718e+34
     -64.1498  1.02727e+35
     -64.2927  1.26043e+35
     -64.4357  1.54652e+35
     -64.5786  1.89661e+35
     -64.7216  2.32558e+35
     -64.8646  2.85254e+35
     -65.0075  3.49761e+35
     -65.1505   4.2875e+35
     -65.2934  5.25639e+35
     -65.4364   6.4421e+35
     -65.5793  7.89498e+35
     -65.7223  9.67534e+35
     -65.8652  1.18528e+36
     -66.0082  1.45195e+36
     -66.1512  1.77904e+36
     -66.2941  2.17857e+36
     -66.4371  2.66804e+36
       -66.58  3.26714e+36
      -66.723  4.00062e+36
     -66.8659  4.89981e+36
     -67.0089  5.99955e+36
     -67.1518  7.34312e+36
     -67.2948  8.98992e+36
     -67.4378   1.1004e+37
     -67.5807  1.34597e+37
     -67.7237  1.64643e+37
     -67.8666   2.0143e+37
     -68.0096  2.46361e+37
