Temperature = 1657.04K
THERMAL DISTRIBUTIONS:
  E, kcal/mol           W1
      145.203     0.102423
       145.06     0.106275
      144.917     0.110272
      144.774     0.114418
      144.631      0.11872
      144.488     0.123184
      144.345     0.127814
      144.202     0.132619
      144.059     0.137603
      143.916     0.142774
      143.773     0.148139
       143.63     0.153705
      143.487      0.15948
      143.344     0.165471
      143.201     0.171687
      143.058     0.178135
      142.915     0.184825
      142.772     0.191765
      142.629     0.198966
      142.486     0.206435
      142.343     0.214185
      142.201     0.222225
      142.058     0.230565
      141.915     0.239218
      141.772     0.248195
      141.629     0.257507
      141.486     0.267168
      141.343     0.277191
        141.2     0.287588
      141.057     0.298375
      140.914     0.309564
      140.771     0.321173
      140.628     0.333215
      140.485     0.345707
      140.342     0.358667
      140.199     0.372111
      140.056     0.386058
      139.913     0.400525
       139.77     0.415534
      139.627     0.431103
      139.484     0.447254
      139.341     0.464008
      139.198     0.481389
      139.056     0.499418
      138.913     0.518121
       138.77     0.537522
      138.627     0.557647
      138.484     0.578524
      138.341      0.60018
      138.198     0.622645
      138.055     0.645948
      137.912     0.670121
      137.769     0.695195
      137.626     0.721205
      137.483     0.748186
       137.34     0.776173
      137.197     0.805204
      137.054     0.835317
      136.911     0.866554
      136.768     0.898955
      136.625     0.932564
      136.482     0.967426
      136.339      1.00359
      136.196       1.0411
      136.053         1.08
      135.911      1.12036
      135.768      1.16222
      135.625      1.20564
      135.482      1.25068
      135.339      1.29739
      135.196      1.34585
      135.053      1.39611
       134.91      1.44824
      134.767      1.50231
      134.624      1.55839
      134.481      1.61656
      134.338       1.6769
      134.195      1.73948
      134.052      1.80439
      133.909      1.87171
      133.766      1.94154
      133.623      2.01397
       133.48      2.08909
      133.337        2.167
      133.194      2.24782
      133.051      2.33163
      132.908      2.41856
      132.765      2.50873
      132.623      2.60224
       132.48      2.69923
      132.337      2.79982
      132.194      2.90415
      132.051      3.01236
      131.908      3.12459
      131.765      3.24098
      131.622       3.3617
      131.479       3.4869
      131.336      3.61675
      131.193      3.75142
       131.05      3.89109
      130.907      4.03594
      130.764      4.18617
      130.621      4.34197
      130.478      4.50355
      130.335      4.67113
      130.192      4.84493
      130.049      5.02517
      129.906       5.2121
      129.763      5.40595
       129.62        5.607
      129.478       5.8155
      129.335      6.03173
      129.192      6.25597
      129.049      6.48852
      128.906       6.7297
      128.763       6.9798
       128.62      7.23918
      128.477      7.50816
      128.334       7.7871
      128.191      8.07638
      128.048      8.37637
      127.905      8.68746
      127.762      9.01008
      127.619      9.34463
      127.476      9.69157
      127.333      10.0513
       127.19      10.4244
      127.047      10.8113
      126.904      11.2125
      126.761      11.6286
      126.618        12.06
      126.475      12.5074
      126.332      12.9714
       126.19      13.4525
      126.047      13.9514
      125.904      14.4687
      125.761      15.0051
      125.618      15.5614
      125.475      16.1382
      125.332      16.7363
      125.189      17.3566
      125.046      17.9997
      124.903      18.6666
       124.76      19.3582
      124.617      20.0752
      124.474      20.8187
      124.331      21.5897
      124.188      22.3892
      124.045      23.2181
      123.902      24.0777
      123.759      24.9689
      123.616      25.8931
      123.473      26.8513
       123.33      27.8449
      123.187      28.8751
      123.045      29.9433
      122.902      31.0509
      122.759      32.1993
      122.616      33.3901
      122.473      34.6247
       122.33      35.9049
      122.187      37.2322
      122.044      38.6084
      121.901      40.0353
      121.758      41.5148
      121.615      43.0488
      121.472      44.6393
      121.329      46.2883
      121.186      47.9981
      121.043      49.7707
        120.9      51.6087
      120.757      53.5142
      120.614      55.4899
      120.471      57.5383
      120.328      59.6621
      120.185      61.8639
      120.042      64.1468
        119.9      66.5136
      119.757      68.9674
      119.614      71.5115
      119.471       74.149
      119.328      76.8836
      119.185      79.7186
      119.042      82.6578
      118.899       85.705
      118.756      88.8641
      118.613      92.1393
       118.47      95.5348
      118.327      99.0549
      118.184      102.704
      118.041      106.488
      117.898       110.41
      117.755      114.476
      117.612      118.692
      117.469      123.062
      117.326      127.593
      117.183      132.289
       117.04      137.158
      116.897      142.206
      116.754      147.439
      116.612      152.863
      116.469      158.487
      116.326      164.316
      116.183       170.36
       116.04      176.624
      115.897      183.119
      115.754      189.851
      115.611       196.83
      115.468      204.064
      115.325      211.563
      115.182      219.337
      115.039      227.396
      114.896       235.75
      114.753      244.409
       114.61      253.386
      114.467      262.691
      114.324      272.336
      114.181      282.334
      114.038      292.698
      113.895      303.441
      113.752      314.577
      113.609       326.12
      113.467      338.085
      113.324      350.488
      113.181      363.343
      113.038      376.669
      112.895      390.481
      112.752      404.799
      112.609      419.639
      112.466      435.021
      112.323      450.965
       112.18      467.491
      112.037      484.621
      111.894      502.376
      111.751      520.779
      111.608      539.853
      111.465      559.624
      111.322      580.116
      111.179      601.355
      111.036       623.37
      110.893      646.187
       110.75      669.836
      110.607      694.347
      110.464      719.752
      110.322      746.083
      110.179      773.374
      110.036      801.659
      109.893      830.975
       109.75      861.358
      109.607      892.849
      109.464      925.486
      109.321      959.312
      109.178      994.369
      109.035       1030.7
      108.892      1068.36
      108.749      1107.39
      108.606      1147.83
      108.463      1189.75
       108.32      1233.19
      108.177      1278.22
      108.034      1324.88
      107.891      1373.24
      107.748      1423.35
      107.605      1475.29
      107.462      1529.12
      107.319       1584.9
      107.176      1642.71
      107.034      1702.61
      106.891       1764.7
      106.748      1829.04
      106.605      1895.72
      106.462      1964.82
      106.319      2036.42
      106.176      2110.63
      106.033      2187.53
       105.89      2267.22
      105.747       2349.8
      105.604      2435.38
      105.461      2524.06
      105.318      2615.96
      105.175      2711.19
      105.032      2809.87
      104.889      2912.14
      104.746      3018.11
      104.603      3127.91
       104.46       3241.7
      104.317      3359.61
      104.174       3481.8
      104.031      3608.41
      103.889       3739.6
      103.746      3875.54
      103.603      4016.41
       103.46      4162.37
      103.317      4313.62
      103.174      4470.34
      103.031      4632.74
      102.888      4801.01
      102.745      4975.36
      102.602      5156.02
      102.459      5343.21
      102.316      5537.18
      102.173      5738.15
       102.03      5946.39
      101.887      6162.15
      101.744      6385.71
      101.601      6617.35
      101.458      6857.35
      101.315      7106.03
      101.172      7363.68
      101.029      7630.64
      100.886      7907.23
      100.743      8193.81
      100.601      8490.73
      100.458      8798.37
      100.315       9117.1
      100.172      9447.34
      100.029      9789.48
      99.8858        10144
      99.7428      10511.2
      99.5998      10891.7
      99.4569        11286
      99.3139      11694.4
       99.171      12117.5
       99.028      12555.9
      98.8851      13010.1
      98.7421      13480.6
      98.5992      13968.1
      98.4562      14473.2
      98.3133      14996.4
      98.1703      15538.5
      98.0273        16100
      97.8844      16681.8
      97.7414      17284.5
      97.5985      17908.9
      97.4555      18555.7
      97.3126      19225.8
      97.1696        19920
      97.0267      20639.2
      96.8837      21384.2
      96.7407        22156
      96.5978      22955.5
      96.4548      23783.7
      96.3119      24641.7
      96.1689      25530.5
       96.026      26451.2
       95.883        27405
      95.7401        28393
      95.5971      29416.5
      95.4541      30476.7
      95.3112      31574.9
      95.1682      32712.6
      95.0253        33891
      94.8823      35111.7
      94.7394      36376.2
      94.5964        37686
      94.4535      39042.8
      94.3105      40448.2
      94.1675      41903.9
      94.0246      43411.8
      93.8816      44973.8
      93.7387      46591.6
      93.5957      48267.4
      93.4528      50003.3
      93.3098      51801.2
      93.1669      53663.5
      93.0239      55592.4
      92.8809      57590.4
       92.738      59659.8
       92.595      61803.3
      92.4521      64023.4
      92.3091      66322.9
      92.1662      68704.6
      92.0232      71171.4
      91.8803      73726.4
      91.7373      76372.7
      91.5943      79113.6
      91.4514      81952.3
      91.3084      84892.4
      91.1655      87937.6
      91.0225      91091.4
      90.8796      94357.8
      90.7366      97740.8
      90.5937       101244
      90.4507       104873
      90.3078       108631
      90.1648       112524
      90.0218       116555
      89.8789       120729
      89.7359       125053
       89.593       129530
        89.45       134168
      89.3071       138970
      89.1641       143943
      89.0212       149094
      88.8782       154428
      88.7352       159952
      88.5923       165672
      88.4493       171597
      88.3064       177732
      88.1634       184085
      88.0205       190664
      87.8775       197477
      87.7346       204533
      87.5916       211839
      87.4486       219405
      87.3057       227241
      87.1627       235354
      87.0198       243756
      86.8768       252456
      86.7339       261465
      86.5909       270794
       86.448       280454
       86.305       290458
       86.162       300816
      86.0191       311541
      85.8761       322648
      85.7332       334148
      85.5902       346056
      85.4473       358387
      85.3043       371154
      85.1614       384374
      85.0184       398063
      84.8754       412236
      84.7325       426912
      84.5895       442107
      84.4466       457841
      84.3036       474132
      84.1607       490999
      84.0177       508464
      83.8748       526546
      83.7318       545268
      83.5889       564653
      83.4459       584723
      83.3029       605503
        83.16       627017
       83.017       649292
      82.8741       672354
      82.7311       696231
      82.5882       720952
      82.4452       746546
      82.3023       773043
      82.1593       800477
      82.0163       828878
      81.8734       858282
      81.7304       888724
      81.5875       920240
      81.4445       952867
      81.3016       986645
      81.1586  1.02161e+06
      81.0157  1.05782e+06
      80.8727   1.0953e+06
      80.7297  1.13409e+06
      80.5868  1.17426e+06
      80.4438  1.21584e+06
      80.3009  1.25889e+06
      80.1579  1.30345e+06
       80.015  1.34958e+06
       79.872  1.39733e+06
      79.7291  1.44677e+06
      79.5861  1.49794e+06
      79.4431  1.55092e+06
      79.3002  1.60575e+06
      79.1572  1.66252e+06
      79.0143  1.72128e+06
      78.8713  1.78211e+06
      78.7284  1.84508e+06
      78.5854  1.91025e+06
      78.4425  1.97772e+06
      78.2995  2.04756e+06
      78.1565  2.11985e+06
      78.0136  2.19468e+06
      77.8706  2.27213e+06
      77.7277  2.35231e+06
      77.5847   2.4353e+06
      77.4418  2.52119e+06
      77.2988  2.61011e+06
      77.1559  2.70214e+06
      77.0129  2.79739e+06
      76.8699  2.89599e+06
       76.727  2.99804e+06
       76.584  3.10367e+06
      76.4411    3.213e+06
      76.2981  3.32616e+06
      76.1552  3.44328e+06
      76.0122   3.5645e+06
      75.8693  3.68996e+06
      75.7263  3.81982e+06
      75.5834  3.95422e+06
      75.4404  4.09332e+06
      75.2974  4.23729e+06
      75.1545  4.38629e+06
      75.0115   4.5405e+06
      74.8686  4.70011e+06
      74.7256  4.86529e+06
      74.5827  5.03624e+06
      74.4397  5.21316e+06
      74.2968  5.39627e+06
      74.1538  5.58576e+06
      74.0108  5.78188e+06
      73.8679  5.98484e+06
      73.7249  6.19488e+06
       73.582  6.41225e+06
       73.439   6.6372e+06
      73.2961     6.87e+06
      73.1531  7.11092e+06
      73.0102  7.36023e+06
      72.8672  7.61824e+06
      72.7242  7.88523e+06
      72.5813  8.16153e+06
      72.4383  8.44745e+06
      72.2954  8.74333e+06
      72.1524  9.04951e+06
      72.0095  9.36635e+06
      71.8665  9.69421e+06
      71.7236  1.00335e+07
      71.5806  1.03846e+07
      71.4376  1.07479e+07
      71.2947  1.11238e+07
      71.1517  1.15128e+07
      71.0088  1.19153e+07
      70.8658  1.23318e+07
      70.7229  1.27627e+07
      70.5799  1.32087e+07
       70.437  1.36701e+07
       70.294  1.41475e+07
       70.151  1.46416e+07
      70.0081  1.51527e+07
      69.8651  1.56816e+07
      69.7222  1.62289e+07
      69.5792  1.67951e+07
      69.4363   1.7381e+07
      69.2933  1.79871e+07
      69.1504  1.86143e+07
      69.0074  1.92632e+07
      68.8644  1.99346e+07
      68.7215  2.06293e+07
      68.5785   2.1348e+07
      68.4356  2.20916e+07
      68.2926  2.28609e+07
      68.1497  2.36568e+07
      68.0067  2.44803e+07
      67.8638  2.53323e+07
      67.7208  2.62137e+07
      67.5779  2.71256e+07
      67.4349  2.80691e+07
      67.2919  2.90451e+07
       67.149  3.00549e+07
       67.006  3.10995e+07
      66.8631  3.21802e+07
      66.7201  3.32983e+07
      66.5772  3.44549e+07
      66.4342  3.56514e+07
      66.2913  3.68893e+07
      66.1483  3.81698e+07
      66.0053  3.94945e+07
      65.8624  4.08649e+07
      65.7194  4.22825e+07
      65.5765   4.3749e+07
      65.4335   4.5266e+07
      65.2906  4.68352e+07
      65.1476  4.84585e+07
      65.0047  5.01377e+07
      64.8617  5.18747e+07
      64.7187  5.36715e+07
      64.5758  5.55301e+07
      64.4328  5.74527e+07
      64.2899  5.94414e+07
      64.1469  6.14984e+07
       64.004  6.36262e+07
       63.861  6.58271e+07
      63.7181  6.81036e+07
      63.5751  7.04583e+07
      63.4321  7.28939e+07
      63.2892  7.54131e+07
      63.1462  7.80188e+07
      63.0033  8.07139e+07
      62.8603  8.35015e+07
      62.7174  8.63847e+07
      62.5744  8.93668e+07
      62.4315  9.24511e+07
      62.2885  9.56412e+07
      62.1455  9.89406e+07
      62.0026  1.02353e+08
      61.8596  1.05882e+08
      61.7167  1.09532e+08
      61.5737  1.13308e+08
      61.4308  1.17212e+08
      61.2878   1.2125e+08
      61.1449  1.25426e+08
      61.0019  1.29745e+08
       60.859  1.34212e+08
       60.716  1.38831e+08
       60.573  1.43608e+08
      60.4301  1.48548e+08
      60.2871  1.53658e+08
      60.1442  1.58941e+08
      60.0012  1.64405e+08
      59.8583  1.70056e+08
      59.7153  1.75899e+08
      59.5724  1.81942e+08
      59.4294  1.88191e+08
      59.2864  1.94653e+08
      59.1435  2.01336e+08
      59.0005  2.08246e+08
      58.8576  2.15391e+08
      58.7146   2.2278e+08
      58.5717  2.30421e+08
      58.4287  2.38322e+08
      58.2858  2.46491e+08
      58.1428  2.54939e+08
      57.9998  2.63674e+08
      57.8569  2.72707e+08
      57.7139  2.82046e+08
       57.571  2.91703e+08
       57.428  3.01688e+08
      57.2851  3.12013e+08
      57.1421  3.22688e+08
      56.9992  3.33726e+08
      56.8562  3.45138e+08
      56.7132  3.56938e+08
      56.5703  3.69139e+08
      56.4273  3.81753e+08
      56.2844  3.94795e+08
      56.1414   4.0828e+08
      55.9985  4.22221e+08
      55.8555  4.36635e+08
      55.7126  4.51538e+08
      55.5696  4.66945e+08
      55.4266  4.82874e+08
      55.2837  4.99342e+08
      55.1407  5.16368e+08
      54.9978  5.33969e+08
      54.8548  5.52167e+08
      54.7119  5.70979e+08
      54.5689  5.90428e+08
       54.426  6.10534e+08
       54.283  6.31319e+08
        54.14  6.52807e+08
      53.9971   6.7502e+08
      53.8541  6.97984e+08
      53.7112  7.21722e+08
      53.5682  7.46262e+08
      53.4253  7.71629e+08
      53.2823  7.97852e+08
      53.1394  8.24959e+08
      52.9964  8.52981e+08
      52.8535  8.81946e+08
      52.7105  9.11887e+08
      52.5675  9.42837e+08
      52.4246  9.74829e+08
      52.2816   1.0079e+09
      52.1387  1.04208e+09
      51.9957  1.07741e+09
      51.8528  1.11393e+09
      51.7098  1.15168e+09
      51.5669   1.1907e+09
      51.4239  1.23102e+09
      51.2809  1.27271e+09
       51.138  1.31579e+09
       50.995  1.36032e+09
      50.8521  1.40634e+09
      50.7091  1.45391e+09
      50.5662  1.50308e+09
      50.4232  1.55389e+09
      50.2803  1.60641e+09
      50.1373  1.66069e+09
      49.9943  1.71679e+09
      49.8514  1.77476e+09
      49.7084  1.83468e+09
      49.5655  1.89661e+09
      49.4225   1.9606e+09
      49.2796  2.02674e+09
      49.1366  2.09509e+09
      48.9937  2.16573e+09
      48.8507  2.23873e+09
      48.7077  2.31417e+09
      48.5648  2.39213e+09
      48.4218  2.47269e+09
      48.2789  2.55595e+09
      48.1359  2.64198e+09
       47.993  2.73089e+09
        47.85  2.82276e+09
      47.7071   2.9177e+09
      47.5641   3.0158e+09
      47.4211  3.11717e+09
      47.2782  3.22192e+09
      47.1352  3.33016e+09
      46.9923  3.44201e+09
      46.8493  3.55757e+09
      46.7064  3.67699e+09
      46.5634  3.80038e+09
      46.4205  3.92787e+09
      46.2775  4.05961e+09
      46.1345  4.19572e+09
      45.9916  4.33636e+09
      45.8486  4.48167e+09
      45.7057  4.63181e+09
      45.5627  4.78693e+09
      45.4198   4.9472e+09
      45.2768  5.11279e+09
      45.1339  5.28387e+09
      44.9909  5.46063e+09
       44.848  5.64325e+09
       44.705  5.83192e+09
       44.562  6.02684e+09
      44.4191  6.22822e+09
      44.2761  6.43626e+09
      44.1332  6.65119e+09
      43.9902  6.87324e+09
      43.8473  7.10263e+09
      43.7043  7.33961e+09
      43.5614  7.58442e+09
      43.4184  7.83732e+09
      43.2754  8.09858e+09
      43.1325  8.36847e+09
      42.9895  8.64727e+09
      42.8466  8.93527e+09
      42.7036  9.23277e+09
      42.5607  9.54009e+09
      42.4177  9.85754e+09
      42.2748  1.01855e+10
      42.1318  1.05242e+10
      41.9888  1.08741e+10
      41.8459  1.12355e+10
      41.7029  1.16088e+10
        41.56  1.19944e+10
       41.417  1.23927e+10
      41.2741   1.2804e+10
      41.1311  1.32289e+10
      40.9882  1.36678e+10
      40.8452  1.41211e+10
      40.7022  1.45893e+10
      40.5593  1.50728e+10
      40.4163  1.55723e+10
      40.2734  1.60881e+10
      40.1304  1.66208e+10
      39.9875   1.7171e+10
      39.8445  1.77393e+10
