Temperature = 964.248K
THERMAL DISTRIBUTIONS:
  E, kcal/mol           W1
      90.1362  3.39533e-07
      89.9933  3.62839e-07
      89.8503  3.87742e-07
      89.7073  4.14352e-07
      89.5644  4.42786e-07
      89.4214  4.73168e-07
      89.2785  5.05633e-07
      89.1355  5.40321e-07
      88.9926  5.77386e-07
      88.8496   6.1699e-07
      88.7067  6.59307e-07
      88.5637  7.04522e-07
      88.4207  7.52833e-07
      88.2778  8.04453e-07
      88.1348  8.59607e-07
      87.9919  9.18537e-07
      87.8489  9.81502e-07
       87.706  1.04878e-06
       87.563  1.12066e-06
      87.4201  1.19745e-06
      87.2771  1.27951e-06
      87.1341  1.36718e-06
      86.9912  1.46084e-06
      86.8482  1.56092e-06
      86.7053  1.66784e-06
      86.5623  1.78208e-06
      86.4194  1.90412e-06
      86.2764  2.03452e-06
      86.1335  2.17383e-06
      85.9905  2.32267e-06
      85.8475  2.48168e-06
      85.7046  2.65156e-06
      85.5616  2.83306e-06
      85.4187  3.02696e-06
      85.2757  3.23411e-06
      85.1328  3.45542e-06
      84.9898  3.69185e-06
      84.8469  3.94443e-06
      84.7039  4.21427e-06
      84.5609  4.50255e-06
       84.418  4.81051e-06
       84.275   5.1395e-06
      84.1321  5.49097e-06
      83.9891  5.86643e-06
      83.8462  6.26753e-06
      83.7032  6.69601e-06
      83.5603  7.15374e-06
      83.4173  7.64272e-06
      83.2743  8.16507e-06
      83.1314  8.72306e-06
      82.9884  9.31913e-06
      82.8455  9.95588e-06
      82.7025  1.06361e-05
      82.5596  1.13626e-05
      82.4166  1.21388e-05
      82.2737  1.29679e-05
      82.1307  1.38535e-05
      81.9878  1.47995e-05
      81.8448    1.581e-05
      81.7018  1.68895e-05
      81.5589  1.80425e-05
      81.4159  1.92741e-05
       81.273  2.05896e-05
        81.13  2.19948e-05
      80.9871  2.34957e-05
      80.8441  2.50989e-05
      80.7012  2.68114e-05
      80.5582  2.86405e-05
      80.4152  3.05942e-05
      80.2723  3.26809e-05
      80.1293  3.49098e-05
      79.9864  3.72905e-05
      79.8434  3.98332e-05
      79.7005  4.25491e-05
      79.5575  4.54498e-05
      79.4146   4.8548e-05
      79.2716  5.18571e-05
      79.1286  5.53913e-05
      78.9857  5.91661e-05
      78.8427  6.31977e-05
      78.6998  6.75036e-05
      78.5568  7.21024e-05
      78.4139   7.7014e-05
      78.2709  8.22597e-05
       78.128  8.78621e-05
       77.985  9.38455e-05
       77.842  0.000100236
      77.6991   0.00010706
      77.5561  0.000114349
      77.4132  0.000122133
      77.2702  0.000130446
      77.1273  0.000139324
      76.9843  0.000148805
      76.8414   0.00015893
      76.6984  0.000169743
      76.5554  0.000181291
      76.4125  0.000193623
      76.2695  0.000206793
      76.1266  0.000220857
      75.9836  0.000235876
      75.8407  0.000251914
      75.6977  0.000269042
      75.5548  0.000287331
      75.4118  0.000306863
      75.2688  0.000327719
      75.1259  0.000349992
      74.9829  0.000373775
        74.84  0.000399171
       74.697  0.000426291
      74.5541   0.00045525
      74.4111  0.000486173
      74.2682  0.000519193
      74.1252  0.000554452
      73.9823  0.000592101
      73.8393  0.000632303
      73.6963   0.00067523
      73.5534  0.000721066
      73.4104  0.000770008
      73.2675  0.000822267
      73.1245  0.000878067
      72.9816  0.000937647
      72.8386   0.00100126
      72.6957   0.00106919
      72.5527   0.00114171
      72.4097   0.00121915
      72.2668   0.00130183
      72.1238   0.00139011
      71.9809   0.00148436
      71.8379   0.00158499
       71.695   0.00169244
       71.552   0.00180715
      71.4091   0.00192963
      71.2661    0.0020604
      71.1231   0.00220001
      70.9802   0.00234906
      70.8372    0.0025082
      70.6943   0.00267809
      70.5513   0.00285948
      70.4084   0.00305313
      70.2654   0.00325987
      70.1225   0.00348059
      69.9795   0.00371622
      69.8365   0.00396778
      69.6936   0.00423634
      69.5506   0.00452305
      69.4077   0.00482912
      69.2647   0.00515587
      69.1218   0.00550469
      68.9788   0.00587707
      68.8359    0.0062746
      68.6929   0.00669896
      68.5499   0.00715198
       68.407   0.00763557
       68.264   0.00815181
      68.1211   0.00870289
      67.9781   0.00929116
      67.8352   0.00991912
      67.6922    0.0105894
      67.5493     0.011305
      67.4063    0.0120688
      67.2633    0.0128841
      67.1204    0.0137544
      66.9774    0.0146834
      66.8345     0.015675
      66.6915    0.0167335
      66.5486    0.0178633
      66.4056    0.0190693
      66.2627    0.0203565
      66.1197    0.0217304
      65.9768     0.023197
      65.8338    0.0247623
      65.6908     0.026433
      65.5479    0.0282163
      65.4049    0.0301196
       65.262    0.0321511
       65.119    0.0343194
      64.9761    0.0366336
      64.8331    0.0391036
      64.6902    0.0417398
      64.5472    0.0445534
      64.4042    0.0475564
      64.2613    0.0507613
      64.1183    0.0541818
      63.9754    0.0578324
      63.8324    0.0617285
      63.6895    0.0658866
      63.5465    0.0703243
      63.4036    0.0750603
      63.2606    0.0801146
      63.1176    0.0855086
      62.9747    0.0912651
      62.8317    0.0974084
      62.6888     0.103964
      62.5458     0.110961
      62.4029     0.118427
      62.2599     0.126395
       62.117     0.134898
       61.974     0.143972
       61.831     0.153655
      61.6881     0.163988
      61.5451     0.175014
      61.4022     0.186781
      61.2592     0.199337
      61.1163     0.212735
      60.9733     0.227032
      60.8304     0.242289
      60.6874     0.258568
      60.5444     0.275939
      60.4015     0.294475
      60.2585     0.314254
      60.1156     0.335358
      59.9726     0.357877
      59.8297     0.381905
      59.6867     0.407543
      59.5438     0.434899
      59.4008     0.464088
      59.2579     0.495232
      59.1149     0.528461
      58.9719     0.563916
       58.829     0.601744
       58.686     0.642105
      58.5431     0.685168
      58.4001     0.731113
      58.2572     0.780133
      58.1142     0.832433
      57.9713     0.888232
      57.8283     0.947764
      57.6853      1.01128
      57.5424      1.07904
      57.3994      1.15133
      57.2565      1.22846
      57.1135      1.31074
      56.9706      1.39852
      56.8276      1.49217
      56.6847      1.59208
      56.5417      1.69866
      56.3987      1.81236
      56.2558      1.93366
      56.1128      2.06306
      55.9699       2.2011
      55.8269      2.34835
       55.684      2.50544
       55.541      2.67302
      55.3981      2.85178
      55.2551      3.04247
      55.1121      3.24588
      54.9692      3.46287
      54.8262      3.69432
      54.6833      3.94122
      54.5403      4.20459
      54.3974      4.48551
      54.2544      4.78516
      54.1115      5.10479
      53.9685      5.44573
      53.8255      5.80939
      53.6826      6.19727
      53.5396      6.61101
      53.3967       7.0523
      53.2537      7.52299
      53.1108      8.02502
      52.9678      8.56049
      52.8249       9.1316
      52.6819      9.74074
      52.5389      10.3904
       52.396      11.0833
       52.253      11.8224
      52.1101      12.6106
      51.9671      13.4512
      51.8242      14.3477
      51.6812      15.3039
      51.5383      16.3236
      51.3953      17.4112
      51.2524       18.571
      51.1094       19.808
      50.9664      21.1271
      50.8235      22.5339
      50.6805      24.0342
      50.5376      25.6341
      50.3946      27.3403
      50.2517      29.1598
      50.1087      31.1001
      49.9658      33.1692
      49.8228      35.3757
      49.6798      37.7286
      49.5369      40.2377
      49.3939      42.9133
       49.251      45.7663
       49.108      48.8086
      48.9651      52.0527
      48.8221      55.5119
      48.6792      59.2005
      48.5362      63.1336
      48.3932      67.3274
      48.2503      71.7991
      48.1073      76.5672
      47.9644      81.6512
      47.8214      87.0719
      47.6785      92.8517
      47.5355      99.0142
      47.3926      105.585
      47.2496       112.59
      47.1066       120.06
      46.9637      128.024
      46.8207      136.514
      46.6778      145.567
      46.5348      155.218
      46.3919      165.508
      46.2489      176.478
       46.106      188.174
       45.963      200.643
        45.82      213.936
      45.6771      228.107
      45.5341      243.216
      45.3912      259.322
      45.2482      276.493
      45.1053      294.798
      44.9623      314.311
      44.8194      335.114
      44.6764      357.289
      44.5334      380.929
      44.3905      406.129
      44.2475      432.991
      44.1046      461.626
      43.9616      492.151
      43.8187      524.688
      43.6757      559.372
      43.5328      596.343
      43.3898      635.751
      43.2469      677.756
      43.1039      722.531
      42.9609      770.256
       42.818      821.125
       42.675      875.345
      42.5321      933.137
      42.3891      994.735
      42.2462      1060.39
      42.1032      1130.36
      41.9603      1204.95
      41.8173      1284.44
      41.6743      1369.16
      41.5314      1459.45
      41.3884      1555.69
      41.2455      1658.25
      41.1025      1767.56
      40.9596      1884.06
      40.8166      2008.21
      40.6737      2140.52
      40.5307      2281.53
      40.3877      2431.81
      40.2448      2591.95
      40.1018      2762.62
      39.9589      2944.49
      39.8159      3138.31
       39.673      3344.85
        39.53      3564.94
      39.3871      3799.49
      39.2441      4049.42
      39.1011      4315.75
      38.9582      4599.55
      38.8152      4901.96
      38.6723       5224.2
      38.5293      5567.57
      38.3864      5933.45
      38.2434      6323.31
      38.1005      6738.71
      37.9575      7181.33
      37.8145      7652.95
      37.6716      8155.45
      37.5286      8690.86
      37.3857      9261.32
      37.2427      9869.13
      37.0998      10516.7
      36.9568      11206.7
      36.8139      11941.8
      36.6709        12725
       36.528      13559.4
       36.385      14448.4
       36.242      15395.5
      36.0991      16404.5
      35.9561      17479.5
      35.8132      18624.7
      35.6702      19844.7
      35.5273      21144.5
      35.3843      22529.1
      35.2414      24004.1
      35.0984      25575.5
      34.9554      27249.4
      34.8125      29032.5
      34.6695      30932.1
      34.5266      32955.5
      34.3836      35110.9
      34.2407      37406.9
      34.0977      39852.7
      33.9548      42457.8
      33.8118      45232.8
      33.6688      48188.6
      33.5259      51337.1
      33.3829      54690.6
        33.24      58262.6
       33.097      62067.2
      32.9541      66119.5
      32.8111      70435.6
      32.6682      75032.6
      32.5252      79928.8
      32.3822      85143.5
      32.2393      90697.5
      32.0963      96612.7
      31.9534       102913
      31.8104       109622
      31.6675       116767
      31.5245       124377
      31.3816       132482
      31.2386       141113
      31.0956       150304
      30.9527       160092
      30.8097       170516
      30.6668       181617
      30.5238       193438
      30.3809       206026
      30.2379       219431
       30.095       233705
       29.952       248905
       29.809       265091
      29.6661       282326
      29.5231       300678
      29.3802       320219
      29.2372       341027
      29.0943       363182
      28.9513       386772
      28.8084       411889
      28.6654       438633
      28.5225       467108
      28.3795       497425
      28.2365       529704
      28.0936       564071
      27.9506       600661
      27.8077       639616
      27.6647       681090
      27.5218       725245
      27.3788       772253
      27.2359       822299
      27.0929       875577
      26.9499       932296
       26.807       992678
       26.664  1.05696e+06
      26.5211  1.12539e+06
      26.3781  1.19823e+06
      26.2352  1.27577e+06
      26.0922  1.35832e+06
      25.9493  1.44619e+06
      25.8063  1.53973e+06
      25.6633  1.63929e+06
      25.5204  1.74527e+06
      25.3774  1.85808e+06
      25.2345  1.97816e+06
      25.0915  2.10598e+06
      24.9486  2.24202e+06
      24.8056  2.38683e+06
      24.6627  2.54095e+06
      24.5197    2.705e+06
      24.3767  2.87959e+06
      24.2338  3.06543e+06
      24.0908  3.26321e+06
      23.9479  3.47371e+06
      23.8049  3.69774e+06
       23.662  3.93618e+06
       23.519  4.18994e+06
      23.3761     4.46e+06
      23.2331   4.7474e+06
      23.0901  5.05327e+06
      22.9472  5.37877e+06
      22.8042  5.72517e+06
      22.6613   6.0938e+06
      22.5183  6.48608e+06
      22.3754  6.90353e+06
      22.2324  7.34775e+06
      22.0895  7.82045e+06
      21.9465  8.32346e+06
      21.8035  8.85871e+06
      21.6606  9.42826e+06
      21.5176  1.00343e+07
      21.3747  1.06792e+07
      21.2317  1.13653e+07
      21.0888  1.20954e+07
      20.9458  1.28722e+07
      20.8029  1.36987e+07
      20.6599  1.45781e+07
       20.517  1.55138e+07
       20.374  1.65093e+07
       20.231  1.75684e+07
      20.0881  1.86952e+07
      19.9451  1.98941e+07
      19.8022  2.11695e+07
      19.6592  2.25265e+07
      19.5163  2.39701e+07
      19.3733  2.55058e+07
      19.2304  2.71396e+07
      19.0874  2.88777e+07
      18.9444  3.07267e+07
      18.8015  3.26936e+07
      18.6585  3.47859e+07
      18.5156  3.70117e+07
      18.3726  3.93793e+07
      18.2297  4.18979e+07
      18.0867  4.45769e+07
      17.9438  4.74266e+07
      17.8008  5.04577e+07
      17.6578  5.36819e+07
      17.5149  5.71113e+07
      17.3719  6.07589e+07
       17.229  6.46386e+07
       17.086  6.87651e+07
      16.9431  7.31541e+07
      16.8001   7.7822e+07
      16.6572  8.27867e+07
      16.5142   8.8067e+07
      16.3712  9.36826e+07
      16.2283   9.9655e+07
      16.0853  1.06007e+08
      15.9424  1.12762e+08
      15.7994  1.19945e+08
      15.6565  1.27585e+08
      15.5135  1.35709e+08
      15.3706  1.44348e+08
      15.2276  1.53536e+08
      15.0846  1.63305e+08
      14.9417  1.73694e+08
      14.7987  1.84741e+08
      14.6558  1.96488e+08
      14.5128  2.08979e+08
      14.3699  2.22261e+08
      14.2269  2.36384e+08
       14.084    2.514e+08
       13.941  2.67366e+08
      13.7981  2.84342e+08
      13.6551  3.02392e+08
      13.5121  3.21583e+08
      13.3692  3.41987e+08
      13.2262   3.6368e+08
      13.0833  3.86743e+08
      12.9403  4.11263e+08
      12.7974  4.37331e+08
      12.6544  4.65044e+08
      12.5115  4.94507e+08
      12.3685  5.25828e+08
      12.2255  5.59125e+08
      12.0826  5.94521e+08
      11.9396  6.32149e+08
      11.7967  6.72148e+08
      11.6537  7.14667e+08
      11.5108  7.59865e+08
      11.3678  8.07909e+08
      11.2249  8.58977e+08
      11.0819   9.1326e+08
      10.9389  9.70959e+08
       10.796  1.03229e+09
       10.653  1.09747e+09
      10.5101  1.16676e+09
      10.3671  1.24039e+09
      10.2242  1.31866e+09
      10.0812  1.40184e+09
      9.93826  1.49025e+09
       9.7953  1.58421e+09
      9.65235  1.68407e+09
      9.50939  1.79019e+09
      9.36643  1.90297e+09
      9.22348  2.02282e+09
      9.08052  2.15019e+09
      8.93757  2.28554e+09
      8.79461  2.42938e+09
      8.65166  2.58223e+09
       8.5087  2.74465e+09
      8.36575  2.91724e+09
      8.22279  3.10063e+09
      8.07984   3.2955e+09
      7.93688  3.50256e+09
      7.79393  3.72257e+09
      7.65097  3.95634e+09
      7.50801  4.20472e+09
      7.36506  4.46862e+09
       7.2221  4.74901e+09
      7.07915  5.04691e+09
      6.93619  5.36341e+09
      6.79324  5.69967e+09
      6.65028  6.05691e+09
      6.50733  6.43643e+09
      6.36437  6.83963e+09
      6.22142  7.26796e+09
      6.07846  7.72299e+09
      5.93551  8.20638e+09
      5.79255  8.71988e+09
       5.6496  9.26535e+09
      5.50664  9.84479e+09
      5.36368  1.04603e+10
      5.22073  1.11141e+10
      5.07777  1.18085e+10
      4.93482  1.25462e+10
      4.79186  1.33297e+10
      4.64891  1.41619e+10
      4.50595  1.50457e+10
        4.363  1.59845e+10
      4.22004  1.69816e+10
      4.07709  1.80405e+10
      3.93413  1.91652e+10
      3.79118  2.03596e+10
      3.64822  2.16281e+10
      3.50527  2.29752e+10
      3.36231  2.44059e+10
      3.21935  2.59251e+10
       3.0764  2.75384e+10
      2.93344  2.92517e+10
      2.79049   3.1071e+10
      2.64753  3.30028e+10
      2.50458  3.50542e+10
      2.36162  3.72324e+10
      2.21867  3.95453e+10
      2.07571  4.20011e+10
      1.93276  4.46086e+10
       1.7898  4.73772e+10
      1.64685  5.03167e+10
      1.50389  5.34376e+10
      1.36093  5.67512e+10
      1.21798  6.02691e+10
      1.07502  6.40039e+10
     0.932069   6.7969e+10
     0.789114  7.21784e+10
     0.646158   7.6647e+10
     0.503203  8.13909e+10
     0.360247  8.64269e+10
     0.217292  9.17727e+10
    0.0743368  9.74474e+10
   -0.0686186  1.03471e+11
    -0.211574  1.09865e+11
    -0.354529  1.16652e+11
    -0.497485  1.23856e+11
     -0.64044  1.31503e+11
    -0.783395  1.39619e+11
    -0.926351  1.48233e+11
     -1.06931  1.57375e+11
     -1.21226  1.67079e+11
     -1.35522  1.77377e+11
     -1.49817  1.88306e+11
     -1.64113  1.99906e+11
     -1.78408  2.12215e+11
     -1.92704  2.25279e+11
     -2.06999  2.39142e+11
     -2.21295  2.53853e+11
      -2.3559  2.69465e+11
     -2.49886  2.86031e+11
     -2.64181  3.03609e+11
     -2.78477  3.22262e+11
     -2.92773  3.42054e+11
     -3.07068  3.63055e+11
     -3.21364  3.85337e+11
     -3.35659  4.08979e+11
     -3.49955  4.34064e+11
      -3.6425  4.60677e+11
     -3.78546  4.88913e+11
     -3.92841   5.1887e+11
     -4.07137   5.5065e+11
     -4.21432  5.84366e+11
     -4.35728  6.20134e+11
     -4.50023  6.58079e+11
     -4.64319   6.9833e+11
     -4.78615   7.4103e+11
      -4.9291  7.86324e+11
     -5.07206   8.3437e+11
     -5.21501  8.85334e+11
     -5.35797  9.39392e+11
     -5.50092  9.96731e+11
     -5.64388  1.05755e+12
     -5.78683  1.12205e+12
     -5.92979  1.19047e+12
     -6.07274  1.26303e+12
      -6.2157  1.33998e+12
     -6.35865   1.4216e+12
     -6.50161  1.50816e+12
     -6.64456  1.59995e+12
     -6.78752  1.69729e+12
     -6.93048  1.80052e+12
     -7.07343  1.90999e+12
     -7.21639  2.02608e+12
     -7.35934  2.14917e+12
      -7.5023  2.27969e+12
     -7.64525  2.41809e+12
     -7.78821  2.56484e+12
     -7.93116  2.72044e+12
     -8.07412  2.88541e+12
     -8.21707  3.06032e+12
     -8.36003  3.24577e+12
     -8.50298  3.44237e+12
     -8.64594  3.65081e+12
     -8.78889  3.87179e+12
     -8.93185  4.10605e+12
     -9.07481  4.35439e+12
     -9.21776  4.61765e+12
     -9.36072  4.89673e+12
     -9.50367  5.19255e+12
     -9.64663  5.50612e+12
     -9.78958  5.83851e+12
     -9.93254  6.19082e+12
     -10.0755  6.56424e+12
     -10.2184  6.96003e+12
     -10.3614  7.37953e+12
     -10.5044  7.82413e+12
     -10.6473  8.29534e+12
     -10.7903  8.79473e+12
     -10.9332  9.32398e+12
     -11.0762  9.88486e+12
     -11.2191  1.04792e+13
     -11.3621  1.11091e+13
      -11.505  1.17766e+13
      -11.648  1.24838e+13
      -11.791  1.32333e+13
     -11.9339  1.40274e+13
     -12.0769  1.48688e+13
     -12.2198  1.57604e+13
     -12.3628   1.6705e+13
     -12.5057  1.77058e+13
     -12.6487  1.87661e+13
     -12.7916  1.98895e+13
     -12.9346  2.10796e+13
     -13.0776  2.23404e+13
     -13.2205  2.36761e+13
     -13.3635   2.5091e+13
     -13.5064  2.65898e+13
     -13.6494  2.81775e+13
     -13.7923  2.98593e+13
     -13.9353  3.16407e+13
     -14.0782  3.35276e+13
     -14.2212  3.55262e+13
     -14.3642  3.76429e+13
     -14.5071  3.98848e+13
     -14.6501  4.22592e+13
      -14.793   4.4774e+13
      -14.936  4.74372e+13
     -15.0789  5.02576e+13
     -15.2219  5.32443e+13
