Temperature = 1663.84K
THERMAL DISTRIBUTIONS:
  E, kcal/mol           W1
      145.743      0.10655
        145.6     0.110539
      145.457     0.114677
      145.314      0.11897
      145.171     0.123423
      145.028     0.128042
      144.885     0.132834
      144.742     0.137804
      144.599      0.14296
      144.456     0.148308
      144.313     0.153856
       144.17     0.159611
      144.028      0.16558
      143.885     0.171772
      143.742     0.178195
      143.599     0.184858
      143.456     0.191769
      143.313     0.198937
       143.17     0.206373
      143.027     0.214086
      142.884     0.222086
      142.741     0.230385
      142.598     0.238993
      142.455     0.247921
      142.312     0.257182
      142.169     0.266788
      142.026     0.276752
      141.883     0.287087
       141.74     0.297807
      141.597     0.308926
      141.454     0.320459
      141.311     0.332421
      141.168     0.344829
      141.025     0.357698
      140.882     0.371047
       140.74     0.384892
      140.597     0.399252
      140.454     0.414147
      140.311     0.429595
      140.168     0.445619
      140.025     0.462238
      139.882     0.479475
      139.739     0.497353
      139.596     0.515896
      139.453     0.535128
       139.31     0.555076
      139.167     0.575764
      139.024     0.597222
      138.881     0.619477
      138.738     0.642558
      138.595     0.666498
      138.452     0.691326
      138.309     0.717077
      138.166     0.743785
      138.023     0.771484
       137.88     0.800212
      137.737     0.830006
      137.595     0.860907
      137.452     0.892954
      137.309     0.926191
      137.166     0.960662
      137.023     0.996412
       136.88      1.03349
      136.737      1.07194
      136.594      1.11182
      136.451      1.15318
      136.308      1.19607
      136.165      1.24055
      136.022      1.28668
      135.879      1.33452
      135.736      1.38414
      135.593      1.43559
       135.45      1.48895
      135.307      1.54429
      135.164      1.60168
      135.021       1.6612
      134.878      1.72292
      134.735      1.78693
      134.592      1.85331
       134.45      1.92214
      134.307      1.99353
      134.164      2.06756
      134.021      2.14433
      133.878      2.22394
      133.735       2.3065
      133.592      2.39212
      133.449       2.4809
      133.306      2.57297
      133.163      2.66844
       133.02      2.76745
      132.877      2.87012
      132.734      2.97658
      132.591      3.08699
      132.448      3.20147
      132.305      3.32019
      132.162       3.4433
      132.019      3.57096
      131.876      3.70333
      131.733       3.8406
       131.59      3.98294
      131.447      4.13054
      131.304       4.2836
      131.162      4.44231
      131.019      4.60688
      130.876      4.77752
      130.733      4.95447
       130.59      5.13795
      130.447      5.32821
      130.304      5.52549
      130.161      5.73005
      130.018      5.94216
      129.875       6.1621
      129.732      6.39015
      129.589      6.62661
      129.446       6.8718
      129.303      7.12604
       129.16      7.38964
      129.017      7.66297
      128.874      7.94638
      128.731      8.24024
      128.588      8.54492
      128.445      8.86084
      128.302      9.18841
      128.159      9.52804
      128.017      9.88018
      127.874      10.2453
      127.731      10.6239
      127.588      11.0164
      127.445      11.4234
      127.302      11.8453
      127.159      12.2828
      127.016      12.7364
      126.873      13.2067
       126.73      13.6943
      126.587      14.1998
      126.444       14.724
      126.301      15.2674
      126.158      15.8309
      126.015       16.415
      125.872      17.0207
      125.729      17.6486
      125.586      18.2996
      125.443      18.9745
        125.3      19.6743
      125.157      20.3997
      125.014      21.1519
      124.871      21.9316
      124.729      22.7401
      124.586      23.5782
      124.443      24.4471
        124.3      25.3479
      124.157      26.2819
      124.014      27.2501
      123.871      28.2538
      123.728      29.2945
      123.585      30.3733
      123.442      31.4917
      123.299      32.6511
      123.156      33.8531
      123.013      35.0992
       122.87      36.3911
      122.727      37.7303
      122.584      39.1186
      122.441      40.5578
      122.298      42.0498
      122.155      43.5966
      122.012         45.2
      121.869      46.8621
      121.726      48.5853
      121.584      50.3715
      121.441      52.2232
      121.298      54.1427
      121.155      56.1326
      121.012      58.1953
      120.869      60.3336
      120.726      62.5501
      120.583      64.8479
       120.44      67.2297
      120.297      69.6987
      120.154      72.2581
      120.011      74.9111
      119.868      77.6613
      119.725       80.512
      119.582       83.467
      119.439      86.5301
      119.296      89.7052
      119.153      92.9964
       119.01       96.408
      118.867      99.9442
      118.724       103.61
      118.581      107.409
      118.439      111.348
      118.296       115.43
      118.153      119.661
       118.01      124.047
      117.867      128.593
      117.724      133.305
      117.581       138.19
      117.438      143.252
      117.295      148.499
      117.152      153.938
      117.009      159.576
      116.866      165.419
      116.723      171.475
       116.58      177.752
      116.437      184.258
      116.294      191.002
      116.151      197.991
      116.008      205.235
      115.865      212.744
      115.722      220.526
      115.579      228.591
      115.436      236.951
      115.293      245.615
      115.151      254.595
      115.008      263.902
      114.865      273.548
      114.722      283.545
      114.579      293.907
      114.436      304.645
      114.293      315.775
       114.15      327.309
      114.007      339.264
      113.864      351.653
      113.721      364.493
      113.578        377.8
      113.435      391.592
      113.292      405.884
      113.149      420.697
      113.006      436.048
      112.863      451.958
       112.72      468.445
      112.577      485.532
      112.434       503.24
      112.291      521.591
      112.148      540.609
      112.006      560.318
      111.863      580.742
       111.72      601.908
      111.577      623.843
      111.434      646.574
      111.291      670.131
      111.148      694.542
      111.005      719.839
      110.862      746.054
      110.719       773.22
      110.576      801.372
      110.433      830.544
       110.29      860.775
      110.147      892.101
      110.004      924.564
      109.861      958.203
      109.718      993.061
      109.575      1029.18
      109.432      1066.61
      109.289       1105.4
      109.146      1145.59
      109.003      1187.24
       108.86      1230.39
      108.718      1275.11
      108.575      1321.45
      108.432      1369.46
      108.289      1419.22
      108.146      1470.77
      108.003      1524.19
       107.86      1579.54
      107.717      1636.89
      107.574      1696.32
      107.431      1757.89
      107.288      1821.69
      107.145       1887.8
      107.002       1956.3
      106.859      2027.28
      106.716      2100.81
      106.573      2177.01
       106.43      2255.96
      106.287      2337.76
      106.144      2422.51
      106.001      2510.33
      105.858      2601.31
      105.715      2695.58
      105.573      2793.25
       105.43      2894.45
      105.287       2999.3
      105.144      3107.93
      105.001      3220.48
      104.858      3337.09
      104.715      3457.91
      104.572      3583.08
      104.429      3712.76
      104.286      3847.12
      104.143      3986.32
          104      4130.54
      103.857      4279.95
      103.714      4434.75
      103.571      4595.12
      103.428      4761.26
      103.285      4933.39
      103.142      5111.72
      102.999      5296.47
      102.856      5487.86
      102.713      5686.14
       102.57      5891.56
      102.428      6104.37
      102.285      6324.83
      102.142      6553.23
      101.999      6789.83
      101.856      7034.94
      101.713      7288.87
       101.57      7551.92
      101.427      7824.42
      101.284      8106.71
      101.141      8399.15
      100.998      8702.09
      100.855      9015.92
      100.712      9341.01
      100.569      9677.77
      100.426      10026.6
      100.283        10388
       100.14      10762.3
      99.9973      11150.1
      99.8543      11551.8
      99.7114      11967.9
      99.5684      12398.9
      99.4254      12845.4
      99.2825      13307.9
      99.1395        13787
      98.9966      14283.2
      98.8536      14797.2
      98.7107      15329.7
      98.5677      15881.2
      98.4248      16452.5
      98.2818      17044.2
      98.1388      17657.1
      97.9959        18292
      97.8529      18949.6
        97.71      19630.7
       97.567      20336.2
      97.4241        21067
      97.2811      21823.9
      97.1382      22607.8
      96.9952      23419.8
      96.8522      24260.9
      96.7093        25132
      96.5663      26034.2
      96.4234      26968.7
      96.2804      27936.6
      96.1375      28939.1
      95.9945      29977.4
      95.8516      31052.8
      95.7086      32166.5
      95.5656      33320.1
      95.4227      34514.8
      95.2797      35752.2
      95.1368      37033.7
      94.9938        38361
      94.8509      39735.6
      94.7079      41159.3
       94.565      42633.7
       94.422      44160.7
      94.2791      45742.1
      94.1361        47380
      93.9931      49076.1
      93.8502      50832.8
      93.7072        52652
      93.5643      54536.1
      93.4213      56487.2
      93.2784      58507.8
      93.1354      60600.4
      92.9925      62767.5
      92.8495      65011.7
      92.7065      67335.8
      92.5636      69742.6
      92.4206        72235
      92.2777        74816
      92.1347      77488.9
      91.9918      80256.8
      91.8488      83123.1
      91.7059      86091.3
      91.5629        89165
      91.4199      92347.9
       91.277      95643.9
       91.134      99056.9
      90.9911       102591
      90.8481       106251
      90.7052       110041
      90.5622       113965
      90.4193       118029
      90.2763       122236
      90.1333       126593
      89.9904       131105
      89.8474       135776
      89.7045       140614
      89.5615       145622
      89.4186       150809
      89.2756       156179
      89.1327       161739
      88.9897       167497
      88.8467       173458
      88.7038       179631
      88.5608       186022
      88.4179       192639
      88.2749       199491
       88.132       206585
       87.989       213930
      87.8461       221535
      87.7031       229409
      87.5602       237562
      87.4172       246003
      87.2742       254742
      87.1313       263790
      86.9883       273158
      86.8454       282857
      86.7024       292899
      86.5595       303296
      86.4165       314059
      86.2736       325203
      86.1306       336740
      85.9876       348684
      85.8447       361050
      85.7017       373852
      85.5588       387106
      85.4158       400828
      85.2729       415033
      85.1299       429739
       84.987       444964
       84.844       460725
       84.701       477041
      84.5581       493933
      84.4151       511419
      84.2722       529522
      84.1292       548262
      83.9863       567662
      83.8433       587744
      83.7004       608534
      83.5574       630055
      83.4144       652333
      83.2715       675394
      83.1285       699267
      82.9856       723979
      82.8426       749560
      82.6997       776041
      82.5567       803451
      82.4138       831825
      82.2708       861196
      82.1278       891598
      81.9849       923067
      81.8419       955642
       81.699       989360
       81.556  1.02426e+06
      81.4131  1.06039e+06
      81.2701  1.09778e+06
      81.1272  1.13649e+06
      80.9842  1.17655e+06
      80.8412  1.21801e+06
      80.6983  1.26094e+06
      80.5553  1.30536e+06
      80.4124  1.35134e+06
      80.2694  1.39893e+06
      80.1265  1.44819e+06
      79.9835  1.49918e+06
      79.8406  1.55195e+06
      79.6976  1.60657e+06
      79.5547   1.6631e+06
      79.4117   1.7216e+06
      79.2687  1.78216e+06
      79.1258  1.84483e+06
      78.9828  1.90969e+06
      78.8399  1.97683e+06
      78.6969  2.04631e+06
       78.554  2.11821e+06
       78.411  2.19264e+06
      78.2681  2.26966e+06
      78.1251  2.34937e+06
      77.9821  2.43186e+06
      77.8392  2.51724e+06
      77.6962   2.6056e+06
      77.5533  2.69704e+06
      77.4103  2.79167e+06
      77.2674   2.8896e+06
      77.1244  2.99095e+06
      76.9815  3.09584e+06
      76.8385  3.20438e+06
      76.6955   3.3167e+06
      76.5526  3.43295e+06
      76.4096  3.55324e+06
      76.2667  3.67772e+06
      76.1237  3.80654e+06
      75.9808  3.93984e+06
      75.8378  4.07779e+06
      75.6949  4.22054e+06
      75.5519  4.36826e+06
      75.4089  4.52112e+06
       75.266  4.67929e+06
       75.123  4.84297e+06
      74.9801  5.01234e+06
      74.8371   5.1876e+06
      74.6942  5.36896e+06
      74.5512  5.55661e+06
      74.4083  5.75079e+06
      74.2653  5.95171e+06
      74.1223  6.15961e+06
      73.9794  6.37473e+06
      73.8364  6.59732e+06
      73.6935  6.82764e+06
      73.5505  7.06594e+06
      73.4076  7.31252e+06
      73.2646  7.56765e+06
      73.1217  7.83163e+06
      72.9787  8.10477e+06
      72.8357  8.38737e+06
      72.6928  8.67977e+06
      72.5498   8.9823e+06
      72.4069  9.29531e+06
      72.2639  9.61916e+06
       72.121  9.95424e+06
       71.978  1.03009e+07
      71.8351  1.06596e+07
      71.6921  1.10307e+07
      71.5492  1.14146e+07
      71.4062  1.18118e+07
      71.2632  1.22227e+07
      71.1203  1.26479e+07
      70.9773  1.30878e+07
      70.8344  1.35428e+07
      70.6914  1.40136e+07
      70.5485  1.45006e+07
      70.4055  1.50045e+07
      70.2626  1.55258e+07
      70.1196  1.60651e+07
      69.9766  1.66229e+07
      69.8337  1.72001e+07
      69.6907  1.77971e+07
      69.5478  1.84148e+07
      69.4048  1.90537e+07
      69.2619  1.97147e+07
      69.1189  2.03985e+07
       68.976  2.11058e+07
       68.833  2.18375e+07
        68.69  2.25944e+07
      68.5471  2.33774e+07
      68.4041  2.41874e+07
      68.2612  2.50252e+07
      68.1182  2.58919e+07
      67.9753  2.67883e+07
      67.8323  2.77157e+07
      67.6894  2.86749e+07
      67.5464  2.96671e+07
      67.4034  3.06935e+07
      67.2605  3.17551e+07
      67.1175  3.28532e+07
      66.9746   3.3989e+07
      66.8316  3.51638e+07
      66.6887   3.6379e+07
      66.5457  3.76359e+07
      66.4028  3.89359e+07
      66.2598  4.02806e+07
      66.1168  4.16714e+07
      65.9739  4.31099e+07
      65.8309  4.45977e+07
       65.688  4.61366e+07
       65.545  4.77282e+07
      65.4021  4.93743e+07
      65.2591  5.10769e+07
      65.1162  5.28377e+07
      64.9732  5.46589e+07
      64.8302  5.65424e+07
      64.6873  5.84904e+07
      64.5443   6.0505e+07
      64.4014  6.25886e+07
      64.2584  6.47435e+07
      64.1155   6.6972e+07
      63.9725  6.92767e+07
      63.8296  7.16603e+07
      63.6866  7.41252e+07
      63.5437  7.66744e+07
      63.4007  7.93107e+07
      63.2577   8.2037e+07
      63.1148  8.48563e+07
      62.9718  8.77719e+07
      62.8289   9.0787e+07
      62.6859  9.39049e+07
       62.543  9.71292e+07
         62.4  1.00463e+08
      62.2571  1.03911e+08
      62.1141  1.07477e+08
      61.9711  1.11164e+08
      61.8282  1.14976e+08
      61.6852  1.18919e+08
      61.5423  1.22995e+08
      61.3993  1.27211e+08
      61.2564  1.31569e+08
      61.1134  1.36077e+08
      60.9705  1.40737e+08
      60.8275  1.45556e+08
      60.6845  1.50539e+08
      60.5416  1.55691e+08
      60.3986  1.61018e+08
      60.2557  1.66527e+08
      60.1127  1.72222e+08
      59.9698  1.78111e+08
      59.8268  1.84199e+08
      59.6839  1.90495e+08
      59.5409  1.97003e+08
      59.3979  2.03733e+08
       59.255  2.10691e+08
       59.112  2.17885e+08
      58.9691  2.25323e+08
      58.8261  2.33012e+08
      58.6832  2.40963e+08
      58.5402  2.49182e+08
      58.3973   2.5768e+08
      58.2543  2.66466e+08
      58.1113  2.75549e+08
      57.9684  2.84939e+08
      57.8254  2.94647e+08
      57.6825  3.04683e+08
      57.5395  3.15059e+08
      57.3966  3.25785e+08
      57.2536  3.36874e+08
      57.1107  3.48337e+08
      56.9677  3.60188e+08
      56.8248  3.72439e+08
      56.6818  3.85103e+08
      56.5388  3.98195e+08
      56.3959  4.11728e+08
      56.2529  4.25718e+08
        56.11   4.4018e+08
       55.967  4.55129e+08
      55.8241  4.70582e+08
      55.6811  4.86556e+08
      55.5382  5.03068e+08
      55.3952  5.20136e+08
      55.2522  5.37779e+08
      55.1093  5.56015e+08
      54.9663  5.74865e+08
      54.8234   5.9435e+08
      54.6804  6.14489e+08
      54.5375  6.35306e+08
      54.3945  6.56822e+08
      54.2516  6.79062e+08
      54.1086  7.02049e+08
      53.9656  7.25807e+08
      53.8227  7.50364e+08
      53.6797  7.75745e+08
      53.5368  8.01978e+08
      53.3938   8.2909e+08
      53.2509  8.57112e+08
      53.1079  8.86074e+08
       52.965  9.16007e+08
       52.822  9.46943e+08
       52.679  9.78915e+08
      52.5361  1.01196e+09
      52.3931  1.04611e+09
      52.2502   1.0814e+09
      52.1072  1.11787e+09
      51.9643  1.15557e+09
      51.8213  1.19452e+09
      51.6784  1.23478e+09
      51.5354  1.27638e+09
      51.3924  1.31938e+09
      51.2495  1.36381e+09
      51.1065  1.40972e+09
      50.9636  1.45717e+09
      50.8206   1.5062e+09
      50.6777  1.55687e+09
      50.5347  1.60923e+09
      50.3918  1.66333e+09
      50.2488  1.71924e+09
      50.1058  1.77701e+09
      49.9629  1.83671e+09
      49.8199  1.89839e+09
       49.677  1.96213e+09
       49.534    2.028e+09
      49.3911  2.09605e+09
      49.2481  2.16637e+09
      49.1052  2.23903e+09
      48.9622  2.31411e+09
      48.8193  2.39168e+09
      48.6763  2.47183e+09
      48.5333  2.55464e+09
      48.3904   2.6402e+09
      48.2474  2.72861e+09
      48.1045  2.81995e+09
      47.9615  2.91432e+09
      47.8186  3.01182e+09
      47.6756  3.11256e+09
      47.5327  3.21663e+09
      47.3897  3.32416e+09
      47.2467  3.43525e+09
      47.1038  3.55002e+09
      46.9608  3.66859e+09
      46.8179  3.79109e+09
      46.6749  3.91764e+09
       46.532  4.04838e+09
       46.389  4.18344e+09
      46.2461  4.32297e+09
      46.1031  4.46711e+09
      45.9601  4.61602e+09
      45.8172  4.76984e+09
      45.6742  4.92875e+09
      45.5313   5.0929e+09
      45.3883  5.26247e+09
      45.2454  5.43764e+09
      45.1024  5.61859e+09
      44.9595   5.8055e+09
      44.8165  5.99857e+09
      44.6735  6.19801e+09
      44.5306  6.40401e+09
      44.3876  6.61681e+09
      44.2447  6.83661e+09
      44.1017  7.06364e+09
      43.9588  7.29814e+09
      43.8158  7.54036e+09
      43.6729  7.79054e+09
      43.5299  8.04895e+09
      43.3869  8.31585e+09
       43.244  8.59152e+09
       43.101  8.87624e+09
      42.9581  9.17031e+09
      42.8151  9.47403e+09
      42.6722  9.78771e+09
      42.5292  1.01117e+10
      42.3863  1.04463e+10
      42.2433  1.07919e+10
      42.1003  1.11487e+10
      41.9574  1.15173e+10
      41.8144   1.1898e+10
      41.6715  1.22911e+10
      41.5285  1.26971e+10
      41.3856  1.31163e+10
      41.2426  1.35493e+10
      41.0997  1.39964e+10
      40.9567  1.44581e+10
      40.8138   1.4935e+10
      40.6708  1.54274e+10
      40.5278  1.59358e+10
      40.3849  1.64609e+10
