Temperature = 1586.49K
THERMAL DISTRIBUTIONS:
  E, kcal/mol           W1
      139.596    0.0432696
      139.453    0.0449774
       139.31    0.0467524
      139.167    0.0485972
      139.024    0.0505147
      138.881    0.0525077
      138.738    0.0545791
      138.595     0.056732
      138.452    0.0589695
      138.309    0.0612952
      138.166    0.0637122
      138.023    0.0662244
       137.88    0.0688354
      137.737     0.071549
      137.595    0.0743693
      137.452    0.0773005
      137.309     0.080347
      137.166    0.0835131
      137.023    0.0868038
       136.88    0.0902237
      136.737     0.093778
      136.594     0.097472
      136.451     0.101311
      136.308     0.105301
      136.165     0.109448
      136.022     0.113757
      135.879     0.118236
      135.736     0.122891
      135.593     0.127728
       135.45     0.132755
      135.307      0.13798
      135.164      0.14341
      135.021     0.149052
      134.878     0.154917
      134.735     0.161011
      134.592     0.167344
       134.45     0.173926
      134.307     0.180766
      134.164     0.187875
      134.021     0.195262
      133.878     0.202939
      133.735     0.210916
      133.592     0.219207
      133.449     0.227822
      133.306     0.236776
      133.163      0.24608
       133.02     0.255749
      132.877     0.265796
      132.734     0.276238
      132.591     0.287088
      132.448     0.298364
      132.305     0.310081
      132.162     0.322257
      132.019     0.334909
      131.876     0.348057
      131.733      0.36172
       131.59     0.375918
      131.447     0.390672
      131.304     0.406003
      131.162     0.421934
      131.019     0.438488
      130.876      0.45569
      130.733     0.473565
       130.59     0.492139
      130.447      0.51144
      130.304     0.531495
      130.161     0.552335
      130.018      0.57399
      129.875     0.596491
      129.732     0.619872
      129.589     0.644166
      129.446      0.66941
      129.303     0.695641
       129.16     0.722897
      129.017     0.751217
      128.874     0.780644
      128.731     0.811221
      128.588     0.842991
      128.445     0.876003
      128.302     0.910303
      128.159     0.945943
      128.017     0.982974
      127.874      1.02145
      127.731      1.06143
      127.588      1.10297
      127.445      1.14613
      127.302      1.19097
      127.159      1.23756
      127.016      1.28597
      126.873      1.33627
       126.73      1.38853
      126.587      1.44283
      126.444      1.49925
      126.301      1.55786
      126.158      1.61876
      126.015      1.68204
      125.872      1.74778
      125.729      1.81608
      125.586      1.88704
      125.443      1.96077
        125.3      2.03737
      125.157      2.11695
      125.014      2.19964
      124.871      2.28554
      124.729      2.37479
      124.586      2.46751
      124.443      2.56385
        124.3      2.66393
      124.157      2.76791
      124.014      2.87593
      123.871      2.98816
      123.728      3.10476
      123.585      3.22589
      123.442      3.35173
      123.299      3.48247
      123.156      3.61829
      123.013      3.75939
       122.87      3.90598
      122.727      4.05827
      122.584      4.21648
      122.441      4.38083
      122.298      4.55157
      122.155      4.72895
      122.012      4.91322
      121.869      5.10465
      121.726      5.30352
      121.584       5.5101
      121.441      5.72471
      121.298      5.94766
      121.155      6.17926
      121.012      6.41985
      120.869      6.66978
      120.726      6.92941
      120.583      7.19911
       120.44      7.47929
      120.297      7.77033
      120.154      8.07266
      120.011      8.38672
      119.868      8.71296
      119.725      9.05185
      119.582      9.40388
      119.439      9.76955
      119.296      10.1494
      119.153       10.544
       119.01      10.9539
      118.867      11.3796
      118.724      11.8219
      118.581      12.2812
      118.439      12.7584
      118.296      13.2541
      118.153      13.7689
       118.01      14.3037
      117.867      14.8592
      117.724      15.4362
      117.581      16.0356
      117.438      16.6581
      117.295      17.3047
      117.152      17.9764
      117.009       18.674
      116.866      19.3987
      116.723      20.1513
       116.58      20.9331
      116.437      21.7451
      116.294      22.5884
      116.151      23.4644
      116.008      24.3743
      115.865      25.3193
      115.722      26.3009
      115.579      27.3204
      115.436      28.3792
      115.293       29.479
      115.151      30.6213
      115.008      31.8076
      114.865      33.0398
      114.722      34.3196
      114.579      35.6487
      114.436      37.0292
      114.293       38.463
       114.15      39.9521
      114.007      41.4987
      113.864      43.1049
      113.721      44.7731
      113.578      46.5057
      113.435       48.305
      113.292      50.1738
      113.149      52.1146
      113.006      54.1303
      112.863      56.2236
       112.72      58.3977
      112.577      60.6555
      112.434      63.0003
      112.291      65.4355
      112.148      67.9645
      112.006      70.5909
      111.863      73.3184
       111.72       76.151
      111.577      79.0926
      111.434      82.1476
      111.291      85.3201
      111.148      88.6147
      111.005      92.0361
      110.862      95.5891
      110.719      99.2789
      110.576      103.111
      110.433       107.09
       110.29      111.222
      110.147      115.513
      110.004      119.969
      109.861      124.596
      109.718      129.401
      109.575      134.391
      109.432      139.573
      109.289      144.953
      109.146      150.541
      109.003      156.343
       108.86      162.368
      108.718      168.624
      108.575       175.12
      108.432      181.866
      108.289      188.871
      108.146      196.145
      108.003      203.698
       107.86      211.541
      107.717      219.684
      107.574       228.14
      107.431       236.92
      107.288      246.038
      107.145      255.504
      107.002      265.334
      106.859       275.54
      106.716      286.138
      106.573      297.142
       106.43      308.567
      106.287      320.431
      106.144      332.749
      106.001      345.538
      105.858      358.818
      105.715      372.605
      105.573      386.921
       105.43      401.785
      105.287      417.218
      105.144      433.242
      105.001      449.878
      104.858      467.152
      104.715      485.086
      104.572      503.706
      104.429      523.038
      104.286       543.11
      104.143      563.949
          104      585.584
      103.857      608.047
      103.714      631.368
      103.571       655.58
      103.428      680.718
      103.285      706.815
      103.142       733.91
      102.999       762.04
      102.856      791.243
      102.713      821.562
       102.57      853.038
      102.428      885.716
      102.285       919.64
      102.142       954.86
      101.999      991.423
      101.856      1029.38
      101.713      1068.79
       101.57      1109.69
      101.427      1152.16
      101.284      1196.25
      101.141      1242.02
      100.998      1289.53
      100.855      1338.86
      100.712      1390.06
      100.569      1443.21
      100.426      1498.39
      100.283      1555.67
       100.14      1615.13
      99.9973      1676.86
      99.8543      1740.94
      99.7114      1807.45
      99.5684       1876.5
      99.4254      1948.17
      99.2825      2022.57
      99.1395       2099.8
      98.9966      2179.97
      98.8536      2263.19
      98.7107      2349.58
      98.5677      2439.24
      98.4248      2532.32
      98.2818      2628.93
      98.1388      2729.22
      97.9959      2833.32
      97.8529      2941.37
        97.71      3053.52
       97.567      3169.94
      97.4241      3290.78
      97.2811       3416.2
      97.1382      3546.39
      96.9952      3681.52
      96.8522      3821.77
      96.7093      3967.35
      96.5663      4118.45
      96.4234      4275.29
      96.2804      4438.07
      96.1375      4607.03
      95.9945      4782.39
      95.8516       4964.4
      95.7086      5153.32
      95.5656      5349.39
      95.4227      5552.89
      95.2797       5764.1
      95.1368      5983.31
      94.9938      6210.83
      94.8509      6446.96
      94.7079      6692.04
       94.565      6946.39
       94.422      7210.37
      94.2791      7484.35
      94.1361      7768.69
      93.9931      8063.79
      93.8502      8370.05
      93.7072       8687.9
      93.5643      9017.76
      93.4213      9360.11
      93.2784      9715.39
      93.1354      10084.1
      92.9925      10466.8
      92.8495      10863.9
      92.7065        11276
      92.5636      11703.7
      92.4206      12147.5
      92.2777      12608.1
      92.1347      13086.1
      91.9918      13582.1
      91.8488      14096.9
      91.7059      14631.1
      91.5629      15185.4
      91.4199      15760.7
       91.277      16357.6
       91.134      16977.1
      90.9911      17619.9
      90.8481        18287
      90.7052      18979.2
      90.5622      19697.6
      90.4193      20442.9
      90.2763      21216.4
      90.1333        22019
      89.9904      22851.9
      89.8474      23716.1
      89.7045      24612.8
      89.5615      25543.3
      89.4186      26508.9
      89.2756      27510.8
      89.1327      28550.4
      88.9897      29629.1
      88.8467      30748.3
      88.7038      31909.7
      88.5608      33114.8
      88.4179      34365.2
      88.2749      35662.5
       88.132      37008.7
       87.989      38405.4
      87.8461      39854.6
      87.7031      41358.3
      87.5602      42918.4
      87.4172      44537.1
      87.2742      46216.6
      87.1313      47959.2
      86.9883      49767.2
      86.8454        51643
      86.7024      53589.3
      86.5595      55608.5
      86.4165      57703.5
      86.2736      59877.1
      86.1306      62132.1
      85.9876      64471.8
      85.8447      66899.1
      85.7017      69417.4
      85.5588      72030.1
      85.4158      74740.6
      85.2729      77552.7
      85.1299      80470.2
       84.987      83496.9
       84.844      86636.9
       84.701      89894.4
      84.5581      93273.9
      84.4151      96779.9
      84.2722       100417
      84.1292       104190
      83.9863       108105
      83.8433       112165
      83.7004       116378
      83.5574       120748
      83.4144       125281
      83.2715       129984
      83.1285       134862
      82.9856       139923
      82.8426       145173
      82.6997       150619
      82.5567       156268
      82.4138       162128
      82.2708       168206
      82.1278       174512
      81.9849       181053
      81.8419       187837
       81.699       194875
       81.556       202176
      81.4131       209748
      81.2701       217603
      81.1272       225750
      80.9842       234201
      80.8412       242967
      80.6983       252060
      80.5553       261491
      80.4124       271273
      80.2694       281420
      80.1265       291944
      79.9835       302860
      79.8406       314182
      79.6976       325926
      79.5547       338106
      79.4117       350739
      79.2687       363842
      79.1258       377431
      78.9828       391526
      78.8399       406145
      78.6969       421307
       78.554       437032
       78.411       453342
      78.2681       470257
      78.1251       487799
      77.9821       505994
      77.8392       524863
      77.6962       544432
      77.5533       564728
      77.4103       585776
      77.2674       607605
      77.1244       630243
      76.9815       653721
      76.8385       678069
      76.6955       703319
      76.5526       729504
      76.4096       756660
      76.2667       784821
      76.1237       814025
      75.9808       844310
      75.8378       875716
      75.6949       908285
      75.5519       942059
      75.4089       977082
       75.266   1.0134e+06
       75.123  1.05106e+06
      74.9801  1.09012e+06
      74.8371  1.13061e+06
      74.6942  1.17261e+06
      74.5512  1.21615e+06
      74.4083  1.26131e+06
      74.2653  1.30813e+06
      74.1223  1.35668e+06
      73.9794  1.40703e+06
      73.8364  1.45923e+06
      73.6935  1.51336e+06
      73.5505  1.56948e+06
      73.4076  1.62768e+06
      73.2646  1.68803e+06
      73.1217  1.75059e+06
      72.9787  1.81547e+06
      72.8357  1.88274e+06
      72.6928  1.95249e+06
      72.5498   2.0248e+06
      72.4069  2.09978e+06
      72.2639  2.17753e+06
       72.121  2.25813e+06
       71.978  2.34171e+06
      71.8351  2.42836e+06
      71.6921   2.5182e+06
      71.5492  2.61134e+06
      71.4062  2.70792e+06
      71.2632  2.80804e+06
      71.1203  2.91185e+06
      70.9773  3.01947e+06
      70.8344  3.13105e+06
      70.6914  3.24673e+06
      70.5485  3.36666e+06
      70.4055    3.491e+06
      70.2626   3.6199e+06
      70.1196  3.75354e+06
      69.9766  3.89208e+06
      69.8337  4.03571e+06
      69.6907  4.18461e+06
      69.5478  4.33898e+06
      69.4048    4.499e+06
      69.2619   4.6649e+06
      69.1189  4.83688e+06
       68.976  5.01516e+06
       68.833  5.19998e+06
        68.69  5.39157e+06
      68.5471  5.59018e+06
      68.4041  5.79607e+06
      68.2612  6.00949e+06
      68.1182  6.23073e+06
      67.9753  6.46007e+06
      67.8323  6.69781e+06
      67.6894  6.94424e+06
      67.5464  7.19969e+06
      67.4034  7.46448e+06
      67.2605  7.73895e+06
      67.1175  8.02346e+06
      66.9746  8.31837e+06
      66.8316  8.62406e+06
      66.6887  8.94091e+06
      66.5457  9.26934e+06
      66.4028  9.60977e+06
      66.2598  9.96262e+06
      66.1168  1.03284e+07
      65.9739  1.07074e+07
      65.8309  1.11004e+07
       65.688  1.15076e+07
       65.545  1.19297e+07
      65.4021  1.23672e+07
      65.2591  1.28207e+07
      65.1162  1.32906e+07
      64.9732  1.37777e+07
      64.8302  1.42826e+07
      64.6873  1.48058e+07
      64.5443  1.53481e+07
      64.4014  1.59102e+07
      64.2584  1.64927e+07
      64.1155  1.70964e+07
      63.9725   1.7722e+07
      63.8296  1.83704e+07
      63.6866  1.90425e+07
      63.5437  1.97389e+07
      63.4007  2.04607e+07
      63.2577  2.12086e+07
      63.1148  2.19838e+07
      62.9718  2.27872e+07
      62.8289  2.36197e+07
      62.6859  2.44824e+07
       62.543  2.53765e+07
         62.4   2.6303e+07
      62.2571  2.72631e+07
      62.1141  2.82581e+07
      61.9711  2.92891e+07
      61.8282  3.03576e+07
      61.6852  3.14647e+07
      61.5423   3.2612e+07
      61.3993  3.38009e+07
      61.2564  3.50329e+07
      61.1134  3.63094e+07
      60.9705  3.76322e+07
      60.8275  3.90029e+07
      60.6845  4.04232e+07
      60.5416  4.18949e+07
      60.3986  4.34199e+07
      60.2557      4.5e+07
      60.1127  4.66372e+07
      59.9698  4.83337e+07
      59.8268  5.00914e+07
      59.6839  5.19127e+07
      59.5409  5.37998e+07
      59.3979   5.5755e+07
       59.255  5.77808e+07
       59.112  5.98798e+07
      58.9691  6.20546e+07
      58.8261  6.43078e+07
      58.6832  6.66422e+07
      58.5402  6.90609e+07
      58.3973  7.15668e+07
      58.2543  7.41631e+07
      58.1113  7.68529e+07
      57.9684  7.96397e+07
      57.8254  8.25268e+07
      57.6825  8.55179e+07
      57.5395  8.86167e+07
      57.3966  9.18271e+07
      57.2536   9.5153e+07
      57.1107  9.85986e+07
      56.9677  1.02168e+08
      56.8248  1.05866e+08
      56.6818  1.09697e+08
      56.5388  1.13665e+08
      56.3959  1.17777e+08
      56.2529  1.22035e+08
        56.11  1.26447e+08
       55.967  1.31017e+08
      55.8241  1.35752e+08
      55.6811  1.40656e+08
      55.5382  1.45736e+08
      55.3952  1.50999e+08
      55.2522   1.5645e+08
      55.1093  1.62097e+08
      54.9663  1.67946e+08
      54.8234  1.74005e+08
      54.6804   1.8028e+08
      54.5375  1.86781e+08
      54.3945  1.93514e+08
      54.2516  2.00489e+08
      54.1086  2.07713e+08
      53.9656  2.15195e+08
      53.8227  2.22946e+08
      53.6797  2.30973e+08
      53.5368  2.39288e+08
      53.3938  2.47899e+08
      53.2509  2.56819e+08
      53.1079  2.66057e+08
       52.965  2.75625e+08
       52.822  2.85535e+08
       52.679  2.95799e+08
      52.5361  3.06429e+08
      52.3931  3.17438e+08
      52.2502   3.2884e+08
      52.1072  3.40648e+08
      51.9643  3.52878e+08
      51.8213  3.65544e+08
      51.6784   3.7866e+08
      51.5354  3.92245e+08
      51.3924  4.06313e+08
      51.2495  4.20882e+08
      51.1065  4.35969e+08
      50.9636  4.51594e+08
      50.8206  4.67774e+08
      50.6777   4.8453e+08
      50.5347  5.01882e+08
      50.3918   5.1985e+08
      50.2488  5.38457e+08
      50.1058  5.57726e+08
      49.9629  5.77679e+08
      49.8199   5.9834e+08
       49.677  6.19735e+08
       49.534  6.41889e+08
      49.3911  6.64829e+08
      49.2481  6.88583e+08
      49.1052   7.1318e+08
      48.9622  7.38649e+08
      48.8193   7.6502e+08
      48.6763  7.92326e+08
      48.5333  8.20599e+08
      48.3904  8.49873e+08
      48.2474  8.80184e+08
      48.1045  9.11567e+08
      47.9615  9.44061e+08
      47.8186  9.77705e+08
      47.6756  1.01254e+09
      47.5327   1.0486e+09
      47.3897  1.08594e+09
      47.2467   1.1246e+09
      47.1038  1.16463e+09
      46.9608  1.20607e+09
      46.8179  1.24897e+09
      46.6749  1.29338e+09
       46.532  1.33937e+09
       46.389  1.38697e+09
      46.2461  1.43626e+09
      46.1031  1.48728e+09
      45.9601   1.5401e+09
      45.8172  1.59478e+09
      45.6742  1.65138e+09
      45.5313  1.70998e+09
      45.3883  1.77065e+09
      45.2454  1.83345e+09
      45.1024  1.89846e+09
      44.9595  1.96575e+09
      44.8165  2.03541e+09
      44.6735  2.10752e+09
      44.5306  2.18217e+09
      44.3876  2.25943e+09
      44.2447  2.33941e+09
      44.1017   2.4222e+09
      43.9588   2.5079e+09
      43.8158   2.5966e+09
      43.6729  2.68841e+09
      43.5299  2.78345e+09
      43.3869  2.88182e+09
       43.244  2.98363e+09
       43.101  3.08901e+09
      42.9581  3.19808e+09
      42.8151  3.31098e+09
      42.6722  3.42782e+09
      42.5292  3.54876e+09
      42.3863  3.67392e+09
      42.2433  3.80347e+09
      42.1003  3.93754e+09
      41.9574   4.0763e+09
      41.8144  4.21991e+09
      41.6715  4.36853e+09
      41.5285  4.52235e+09
      41.3856  4.68154e+09
      41.2426  4.84628e+09
      41.0997  5.01677e+09
      40.9567  5.19321e+09
      40.8138  5.37579e+09
      40.6708  5.56475e+09
      40.5278  5.76029e+09
      40.3849  5.96264e+09
      40.2419  6.17204e+09
       40.099  6.38873e+09
       39.956  6.61296e+09
      39.8131  6.84499e+09
      39.6701  7.08509e+09
      39.5272  7.33354e+09
      39.3842  7.59063e+09
      39.2412  7.85665e+09
      39.0983  8.13192e+09
      38.9553  8.41674e+09
      38.8124  8.71145e+09
      38.6694  9.01639e+09
      38.5265   9.3319e+09
      38.3835  9.65836e+09
      38.2406  9.99614e+09
      38.0976  1.03456e+10
      37.9546  1.07072e+10
      37.8117  1.10813e+10
      37.6687  1.14684e+10
      37.5258  1.18689e+10
      37.3828  1.22832e+10
      37.2399  1.27119e+10
      37.0969  1.31554e+10
       36.954  1.36142e+10
       36.811  1.40889e+10
       36.668    1.458e+10
      36.5251   1.5088e+10
      36.3821  1.56136e+10
      36.2392  1.61573e+10
      36.0962  1.67198e+10
      35.9533  1.73016e+10
      35.8103  1.79036e+10
      35.6674  1.85263e+10
      35.5244  1.91704e+10
      35.3814  1.98367e+10
      35.2385   2.0526e+10
      35.0955   2.1239e+10
      34.9526  2.19765e+10
      34.8096  2.27394e+10
      34.6667  2.35285e+10
      34.5237  2.43448e+10
      34.3808  2.51891e+10
      34.2378  2.60624e+10
