Temperature = 1012.95K
THERMAL DISTRIBUTIONS:
  E, kcal/mol           W1
      94.0074  1.36766e-06
      93.8645  1.45652e-06
      93.7215  1.55115e-06
      93.5786  1.65192e-06
      93.4356  1.75922e-06
      93.2927  1.87349e-06
      93.1497  1.99516e-06
      93.0067  2.12473e-06
      92.8638  2.26269e-06
      92.7208   2.4096e-06
      92.5779  2.56604e-06
      92.4349  2.73262e-06
       92.292  2.90999e-06
       92.149  3.09887e-06
      92.0061  3.29998e-06
      91.8631  3.51412e-06
      91.7202  3.74214e-06
      91.5772  3.98493e-06
      91.4342  4.24346e-06
      91.2913  4.51872e-06
      91.1483  4.81182e-06
      91.0054   5.1239e-06
      90.8624  5.45619e-06
      90.7195  5.80999e-06
      90.5765  6.18671e-06
      90.4336  6.58781e-06
      90.2906  7.01487e-06
      90.1476  7.46958e-06
      90.0047  7.95372e-06
      89.8617  8.46919e-06
      89.7188  9.01802e-06
      89.5758  9.60235e-06
      89.4329  1.02245e-05
      89.2899  1.08869e-05
       89.147  1.15921e-05
       89.004   1.2343e-05
       88.861  1.31424e-05
      88.7181  1.39935e-05
      88.5751  1.48996e-05
      88.4322  1.58643e-05
      88.2892  1.68914e-05
      88.1463  1.79849e-05
      88.0033   1.9149e-05
      87.8604  2.03884e-05
      87.7174  2.17079e-05
      87.5744  2.31126e-05
      87.4315  2.46081e-05
      87.2885  2.62002e-05
      87.1456  2.78951e-05
      87.0026  2.96996e-05
      86.8597  3.16205e-05
      86.7167  3.36655e-05
      86.5738  3.58426e-05
      86.4308  3.81602e-05
      86.2878  4.06274e-05
      86.1449  4.32539e-05
      86.0019  4.60499e-05
       85.859  4.90264e-05
       85.716   5.2195e-05
      85.5731   5.5568e-05
      85.4301  5.91586e-05
      85.2872  6.29809e-05
      85.1442  6.70497e-05
      85.0012   7.1381e-05
      84.8583  7.59916e-05
      84.7153  8.08995e-05
      84.5724  8.61239e-05
      84.4294  9.16851e-05
      84.2865  9.76048e-05
      84.1435  0.000103906
      84.0006  0.000110614
      83.8576  0.000117753
      83.7147  0.000125353
      83.5717  0.000133443
      83.4287  0.000142054
      83.2858  0.000151219
      83.1428  0.000160975
      82.9999  0.000171359
      82.8569  0.000182412
       82.714  0.000194177
       82.571  0.000206699
      82.4281  0.000220027
      82.2851  0.000234213
      82.1421  0.000249313
      81.9992  0.000265384
      81.8562   0.00028249
      81.7133  0.000300696
      81.5703  0.000320074
      81.4274  0.000340698
      81.2844  0.000362649
      81.1415  0.000386012
      80.9985  0.000410878
      80.8555  0.000437343
      80.7126  0.000465509
      80.5696  0.000495486
      80.4267   0.00052739
      80.2837  0.000561346
      80.1408  0.000597483
      79.9978  0.000635943
      79.8549  0.000676874
      79.7119  0.000720436
      79.5689  0.000766796
       79.426  0.000816134
       79.283  0.000868641
      79.1401   0.00092452
      78.9971  0.000983988
      78.8542   0.00104727
      78.7112   0.00111462
      78.5683    0.0011863
      78.4253   0.00126257
      78.2823   0.00134374
      78.1394   0.00143012
      77.9964   0.00152204
      77.8535   0.00161986
      77.7105   0.00172396
      77.5676   0.00183473
      77.4246   0.00195261
      77.2817   0.00207805
      77.1387   0.00221153
      76.9957   0.00235357
      76.8528   0.00250472
      76.7098   0.00266555
      76.5669    0.0028367
      76.4239   0.00301882
       76.281    0.0032126
       76.138   0.00341881
      75.9951   0.00363823
      75.8521    0.0038717
      75.7092   0.00412013
      75.5662   0.00438447
      75.4232   0.00466573
      75.2803   0.00496501
      75.1373   0.00528346
      74.9944   0.00562228
      74.8514    0.0059828
      74.7085    0.0063664
      74.5655   0.00677454
      74.4226    0.0072088
      74.2796   0.00767085
      74.1366   0.00816245
      73.9937   0.00868551
      73.8507   0.00924202
      73.7078   0.00983412
      73.5648    0.0104641
      73.4219    0.0111343
      73.2789    0.0118474
       73.136    0.0126061
       72.993    0.0134133
        72.85    0.0142721
      72.7071    0.0151857
      72.5641    0.0161577
      72.4212    0.0171919
      72.2782     0.018292
      72.1353    0.0194625
      71.9923    0.0207077
      71.8494    0.0220324
      71.7064    0.0234418
      71.5634     0.024941
      71.4205    0.0265361
      71.2775    0.0282329
      71.1346     0.030038
      70.9916    0.0319583
      70.8487    0.0340011
      70.7057    0.0361742
      70.5628     0.038486
      70.4198    0.0409453
      70.2768    0.0435613
      70.1339    0.0463443
      69.9909    0.0493046
       69.848    0.0524537
       69.705    0.0558035
      69.5621    0.0593668
      69.4191    0.0631573
      69.2762    0.0671892
      69.1332    0.0714781
      68.9903    0.0760402
      68.8473    0.0808929
      68.7043    0.0860547
      68.5614    0.0915452
      68.4184    0.0973853
      68.2755     0.103597
      68.1325     0.110205
      67.9896     0.117233
      67.8466     0.124708
      67.7037     0.132659
      67.5607     0.141116
      67.4177     0.150111
      67.2748     0.159678
      67.1318     0.169854
      66.9889     0.180677
      66.8459     0.192188
       66.703     0.204431
        66.56     0.217453
      66.4171     0.231302
      66.2741     0.246031
      66.1311     0.261697
      65.9882     0.278358
      65.8452     0.296077
      65.7023     0.314923
      65.5593     0.334965
      65.4164      0.35628
      65.2734     0.378949
      65.1305     0.403057
      64.9875     0.428695
      64.8445     0.455962
      64.7016     0.484958
      64.5586     0.515795
      64.4157     0.548589
      64.2727     0.583464
      64.1298     0.620551
      63.9868      0.65999
      63.8439     0.701931
      63.7009     0.746531
      63.5579     0.793959
       63.415     0.844394
       63.272     0.898027
      63.1291     0.955058
      62.9861       1.0157
      62.8432      1.08019
      62.7002      1.14877
      62.5573      1.22169
      62.4143      1.29922
      62.2713      1.38167
      62.1284      1.46934
      61.9854      1.56256
      61.8425      1.66168
      61.6995      1.76708
      61.5566      1.87914
      61.4136       1.9983
      61.2707        2.125
      61.1277      2.25971
      60.9848      2.40294
      60.8418      2.55524
      60.6988      2.71716
      60.5559      2.88933
      60.4129      3.07238
        60.27        3.267
       60.127      3.47392
      59.9841      3.69391
      59.8411      3.92781
      59.6982      4.17649
      59.5552      4.44088
      59.4122      4.72196
      59.2693       5.0208
      59.1263      5.33851
      58.9834      5.67628
      58.8404      6.03537
      58.6975      6.41713
      58.5545      6.82298
      58.4116      7.25444
      58.2686      7.71313
      58.1256      8.20075
      57.9827      8.71912
      57.8397       9.2702
      57.6968      9.85602
      57.5538      10.4788
      57.4109      11.1408
      57.2679      11.8445
       57.125      12.5926
       56.982      13.3879
       56.839      14.2332
      56.6961      15.1318
      56.5531       16.087
      56.4102      17.1024
      56.2672      18.1817
      56.1243       19.329
      55.9813      20.5485
      55.8384      21.8447
      55.6954      23.2225
      55.5524      24.6871
      55.4095      26.2437
      55.2665      27.8983
      55.1236       29.657
      54.9806      31.5263
      54.8377      33.5131
      54.6947      35.6248
      54.5518      37.8693
      54.4088      40.2549
      54.2658      42.7904
      54.1229      45.4852
      53.9799      48.3493
       53.837      51.3933
       53.694      54.6286
      53.5511      58.0669
      53.4081      61.7212
      53.2652      65.6049
      53.1222      69.7324
      52.9793       74.119
      52.8363      78.7808
      52.6933      83.7351
      52.5504      89.0003
      52.4074      94.5957
      52.2645      100.542
      52.1215      106.861
      51.9786      113.577
      51.8356      120.713
      51.6927      128.297
      51.5497      136.355
      51.4067      144.919
      51.2638       154.02
      51.1208       163.69
      50.9779      173.966
      50.8349      184.886
       50.692      196.489
       50.549      208.819
      50.4061      221.921
      50.2631      235.842
      50.1201      250.635
      49.9772      266.353
      49.8342      283.054
      49.6913        300.8
      49.5483      319.656
      49.4054      339.691
      49.2624      360.978
      49.1195      383.595
      48.9765      407.627
      48.8335       433.16
      48.6906      460.288
      48.5476      489.111
      48.4047      519.734
      48.2617      552.269
      48.1188      586.836
      47.9758      623.561
      47.8329      662.578
      47.6899       704.03
      47.5469      748.068
       47.404      794.855
       47.261      844.559
      47.1181      897.364
      46.9751      953.461
      46.8322      1013.06
      46.6892      1076.37
      46.5463      1143.62
      46.4033      1215.07
      46.2604      1290.97
      46.1174       1371.6
      45.9744      1457.25
      45.8315      1548.23
      45.6885      1644.88
      45.5456      1747.55
      45.4026      1856.61
      45.2597      1972.45
      45.1167      2095.51
      44.9738      2226.22
      44.8308      2365.06
      44.6878      2512.54
      44.5449      2669.19
      44.4019      2835.57
       44.259      3012.31
       44.116      3200.02
      43.9731      3399.41
      43.8301      3611.18
      43.6872      3836.11
      43.5442      4075.01
      43.4012      4328.74
      43.2583      4598.23
      43.1153      4884.45
      42.9724      5188.44
      42.8294       5511.3
      42.6865      5854.19
      42.5435      6218.35
      42.4006       6605.1
      42.2576      7015.84
      42.1146      7452.04
      41.9717      7915.29
      41.8287      8407.26
      41.6858      8929.72
      41.5428      9484.55
      41.3999      10073.8
      41.2569      10699.5
       41.114      11363.9
       40.971      12069.5
       40.828      12818.8
      40.6851      13614.5
      40.5421      14459.4
      40.3992      15356.6
      40.2562      16309.3
      40.1133        17321
      39.9703      18395.2
      39.8274      19535.8
      39.6844        20747
      39.5414        22033
      39.3985      23398.5
      39.2555      24848.4
      39.1126      26387.9
      38.9696      28022.5
      38.8267        29758
      38.6837      31600.7
      38.5408      33557.1
      38.3978      35634.3
      38.2549      37839.7
      38.1119      40181.2
      37.9689      42667.2
       37.826      45306.4
       37.683      48108.5
      37.5401      51083.3
      37.3971      54241.5
      37.2542      57594.4
      37.1112      61153.9
      36.9683      64932.7
      36.8253      68944.3
      36.6823      73202.9
      36.5394      77723.8
      36.3964      82523.1
      36.2535      87617.8
      36.1105        93026
      35.9676      98767.1
      35.8246       104861
      35.6817       111330
      35.5387       118197
      35.3957       125487
      35.2528       133224
      35.1098       141437
      34.9669       150154
      34.8239       159407
       34.681       169229
       34.538       179654
      34.3951       190719
      34.2521       202463
      34.1091       214928
      33.9662       228158
      33.8232       242200
      33.6803       257104
      33.5373       272921
      33.3944       289709
      33.2514       307525
      33.1085       326434
      32.9655       346502
      32.8225       367799
      32.6796       390401
      32.5366       414388
      32.3937       439843
      32.2507       466857
      32.1078       495525
      31.9648       525947
      31.8219       558231
      31.6789       592489
      31.5359       628844
       31.393       667421
        31.25       708357
      31.1071       751796
      30.9641       797889
      30.8212       846799
      30.6782       898696
      30.5353       953764
      30.3923  1.01219e+06
      30.2494  1.07419e+06
      30.1064  1.13997e+06
      29.9634  1.20977e+06
      29.8205  1.28383e+06
      29.6775   1.3624e+06
      29.5346  1.44577e+06
      29.3916  1.53422e+06
      29.2487  1.62806e+06
      29.1057  1.72762e+06
      28.9628  1.83325e+06
      28.8198  1.94532e+06
      28.6768  2.06421e+06
      28.5339  2.19034e+06
      28.3909  2.32415e+06
       28.248  2.46611e+06
       28.105  2.61671e+06
      27.9621  2.77647e+06
      27.8191  2.94596e+06
      27.6762  3.12575e+06
      27.5332  3.31648e+06
      27.3902   3.5188e+06
      27.2473  3.73342e+06
      27.1043  3.96109e+06
      26.9614  4.20258e+06
      26.8184  4.45875e+06
      26.6755  4.73048e+06
      26.5325   5.0187e+06
      26.3896  5.32443e+06
      26.2466  5.64871e+06
      26.1036  5.99266e+06
      25.9607  6.35749e+06
      25.8177  6.74444e+06
      25.6748  7.15486e+06
      25.5318  7.59016e+06
      25.3889  8.05185e+06
      25.2459  8.54152e+06
       25.103  9.06086e+06
        24.96  9.61165e+06
       24.817  1.01958e+07
      24.6741  1.08153e+07
      24.5311  1.14723e+07
      24.3882  1.21691e+07
      24.2452  1.29081e+07
      24.1023  1.36917e+07
      23.9593  1.45228e+07
      23.8164  1.54041e+07
      23.6734  1.63386e+07
      23.5305  1.73297e+07
      23.3875  1.83806e+07
      23.2445  1.94951e+07
      23.1016  2.06768e+07
      22.9586  2.19299e+07
      22.8157  2.32587e+07
      22.6727  2.46676e+07
      22.5298  2.61616e+07
      22.3868  2.77457e+07
      22.2439  2.94253e+07
      22.1009  3.12062e+07
      21.9579  3.30945e+07
       21.815  3.50966e+07
       21.672  3.72193e+07
      21.5291    3.947e+07
      21.3861  4.18561e+07
      21.2432   4.4386e+07
      21.1002  4.70681e+07
      20.9573  4.99117e+07
      20.8143  5.29264e+07
      20.6713  5.61224e+07
      20.5284  5.95107e+07
      20.3854  6.31027e+07
      20.2425  6.69106e+07
      20.0995  7.09474e+07
      19.9566  7.52268e+07
      19.8136  7.97632e+07
      19.6707   8.4572e+07
      19.5277  8.96696e+07
      19.3847  9.50732e+07
      19.2418  1.00801e+08
      19.0988  1.06873e+08
      18.9559  1.13308e+08
      18.8129   1.2013e+08
        18.67  1.27361e+08
       18.527  1.35025e+08
      18.3841  1.43148e+08
      18.2411  1.51758e+08
      18.0981  1.60884e+08
      17.9552  1.70556e+08
      17.8122  1.80807e+08
      17.6693  1.91671e+08
      17.5263  2.03186e+08
      17.3834   2.1539e+08
      17.2404  2.28323e+08
      17.0975   2.4203e+08
      16.9545  2.56555e+08
      16.8115  2.71949e+08
      16.6686  2.88263e+08
      16.5256  3.05551e+08
      16.3827  3.23871e+08
      16.2397  3.43285e+08
      16.0968  3.63858e+08
      15.9538  3.85658e+08
      15.8109  4.08758e+08
      15.6679  4.33236e+08
       15.525  4.59174e+08
       15.382  4.86657e+08
       15.239  5.15778e+08
      15.0961  5.46634e+08
      14.9531  5.79328e+08
      14.8102  6.13968e+08
      14.6672  6.50671e+08
      14.5243  6.89557e+08
      14.3813  7.30757e+08
      14.2384  7.74408e+08
      14.0954  8.20654e+08
      13.9524  8.69649e+08
      13.8095  9.21557e+08
      13.6665  9.76548e+08
      13.5236  1.03481e+09
      13.3806  1.09652e+09
      13.2377   1.1619e+09
      13.0947  1.23116e+09
      12.9518  1.30454e+09
      12.8088  1.38226e+09
      12.6658  1.46459e+09
      12.5229   1.5518e+09
      12.3799  1.64418e+09
       12.237  1.74204e+09
       12.094  1.84569e+09
      11.9511  1.95548e+09
      11.8081  2.07177e+09
      11.6652  2.19495e+09
      11.5222  2.32541e+09
      11.3792  2.46359e+09
      11.2363  2.60994e+09
      11.0933  2.76494e+09
      10.9504   2.9291e+09
      10.8074  3.10296e+09
      10.6645   3.2871e+09
      10.5215   3.4821e+09
      10.3786  3.68862e+09
      10.2356  3.90733e+09
      10.0926  4.13894e+09
      9.94969  4.38421e+09
      9.80674  4.64395e+09
      9.66378    4.919e+09
      9.52083  5.21025e+09
      9.37787  5.51867e+09
      9.23492  5.84525e+09
      9.09196  6.19106e+09
        8.949  6.55723e+09
      8.80605  6.94495e+09
      8.66309  7.35547e+09
      8.52014  7.79014e+09
      8.37718  8.25036e+09
      8.23423  8.73763e+09
      8.09127  9.25354e+09
      7.94832  9.79975e+09
      7.80536   1.0378e+10
      7.66241  1.09903e+10
      7.51945  1.16384e+10
       7.3765  1.23246e+10
      7.23354  1.30511e+10
      7.09059  1.38201e+10
      6.94763  1.46342e+10
      6.80467   1.5496e+10
      6.66172  1.64083e+10
      6.51876  1.73741e+10
      6.37581  1.83963e+10
      6.23285  1.94785e+10
       6.0899  2.06239e+10
      5.94694  2.18363e+10
      5.80399  2.31196e+10
      5.66103  2.44779e+10
      5.51808  2.59156e+10
      5.37512  2.74373e+10
      5.23217  2.90479e+10
      5.08921  3.07524e+10
      4.94626  3.25565e+10
       4.8033  3.44658e+10
      4.66034  3.64865e+10
      4.51739  3.86249e+10
      4.37443  4.08881e+10
      4.23148   4.3283e+10
      4.08852  4.58175e+10
      3.94557  4.84996e+10
      3.80261  5.13378e+10
      3.65966  5.43412e+10
       3.5167  5.75193e+10
      3.37375  6.08822e+10
      3.23079  6.44406e+10
      3.08784  6.82058e+10
      2.94488  7.21897e+10
      2.80192   7.6405e+10
      2.65897   8.0865e+10
      2.51601  8.55839e+10
      2.37306  9.05766e+10
       2.2301  9.58589e+10
      2.08715  1.01447e+11
      1.94419   1.0736e+11
      1.80124  1.13615e+11
      1.65828  1.20232e+11
      1.51533  1.27233e+11
      1.37237  1.34638e+11
      1.22942  1.42473e+11
      1.08646   1.5076e+11
     0.943505  1.59527e+11
      0.80055    1.688e+11
     0.657595  1.78609e+11
     0.514639  1.88985e+11
     0.371684   1.9996e+11
     0.228729  2.11568e+11
    0.0857732  2.23846e+11
   -0.0571821  2.36832e+11
    -0.200137  2.50567e+11
    -0.343093  2.65094e+11
    -0.486048  2.80458e+11
    -0.629004  2.96707e+11
    -0.771959  3.13891e+11
    -0.914914  3.32065e+11
     -1.05787  3.51284e+11
     -1.20082  3.71608e+11
     -1.34378  3.93101e+11
     -1.48674  4.15829e+11
     -1.62969  4.39863e+11
     -1.77265  4.65278e+11
      -1.9156  4.92151e+11
     -2.05856  5.20567e+11
     -2.20151  5.50614e+11
     -2.34447  5.82383e+11
     -2.48742  6.15974e+11
     -2.63038  6.51489e+11
     -2.77333  6.89039e+11
     -2.91629   7.2874e+11
     -3.05924  7.70713e+11
      -3.2022  8.15088e+11
     -3.34516  8.62001e+11
     -3.48811  9.11596e+11
     -3.63107  9.64026e+11
     -3.77402  1.01945e+12
     -3.91698  1.07804e+12
     -4.05993  1.13998e+12
     -4.20289  1.20545e+12
     -4.34584  1.27465e+12
      -4.4888   1.3478e+12
     -4.63175  1.42512e+12
     -4.77471  1.50685e+12
     -4.91766  1.59323e+12
     -5.06062  1.68453e+12
     -5.20357  1.78103e+12
     -5.34653  1.88301e+12
     -5.48949  1.99079e+12
     -5.63244  2.10471e+12
      -5.7754  2.22509e+12
     -5.91835  2.35231e+12
     -6.06131  2.48675e+12
     -6.20426  2.62883e+12
     -6.34722  2.77896e+12
     -6.49017  2.93761e+12
     -6.63313  3.10525e+12
     -6.77608   3.2824e+12
     -6.91904  3.46957e+12
     -7.06199  3.66734e+12
     -7.20495  3.87631e+12
      -7.3479  4.09709e+12
     -7.49086  4.33037e+12
     -7.63382  4.57682e+12
     -7.77677   4.8372e+12
     -7.91973  5.11229e+12
     -8.06268   5.4029e+12
     -8.20564  5.70992e+12
     -8.34859  6.03424e+12
     -8.49155  6.37685e+12
      -8.6345  6.73877e+12
     -8.77746  7.12108e+12
     -8.92041  7.52491e+12
     -9.06337  7.95147e+12
     -9.20632  8.40203e+12
     -9.34928  8.87793e+12
     -9.49224  9.38058e+12
     -9.63519  9.91146e+12
     -9.77815  1.04722e+13
      -9.9211  1.10643e+13
     -10.0641  1.16897e+13
      -10.207  1.23502e+13
       -10.35  1.30477e+13
     -10.4929  1.37843e+13
     -10.6359  1.45622e+13
     -10.7788  1.53836e+13
     -10.9218   1.6251e+13
     -11.0647  1.71669e+13
     -11.2077   1.8134e+13
     -11.3507  1.91551e+13
