Temperature = 774.101K
THERMAL DISTRIBUTIONS:
  E, kcal/mol           W1
      75.0201  2.80903e-10
      74.8772  3.05538e-10
      74.7342  3.32331e-10
      74.5912  3.61472e-10
      74.4483  3.93165e-10
      74.3053  4.27634e-10
      74.1624  4.65122e-10
      74.0194  5.05893e-10
      73.8765  5.50234e-10
      73.7335  5.98458e-10
      73.5906  6.50903e-10
      73.4476   7.0794e-10
      73.3046   7.6997e-10
      73.1617  8.37429e-10
      73.0187  9.10792e-10
      72.8758  9.90575e-10
      72.7328  1.07734e-09
      72.5899   1.1717e-09
      72.4469  1.27431e-09
       72.304   1.3859e-09
       72.161  1.50725e-09
       72.018  1.63922e-09
      71.8751  1.78272e-09
      71.7321  1.93878e-09
      71.5892  2.10848e-09
      71.4462  2.29303e-09
      71.3033   2.4937e-09
      71.1603  2.71192e-09
      71.0174  2.94922e-09
      70.8744  3.20726e-09
      70.7314  3.48785e-09
      70.5885  3.79297e-09
      70.4455  4.12474e-09
      70.3026  4.48551e-09
      70.1596  4.87779e-09
      70.0167  5.30435e-09
      69.8737  5.76817e-09
      69.7308   6.2725e-09
      69.5878  6.82088e-09
      69.4448  7.41715e-09
      69.3019  8.06548e-09
      69.1589  8.77043e-09
       69.016  9.53693e-09
       68.873  1.03703e-08
      68.7301  1.12765e-08
      68.5871  1.22617e-08
      68.4442   1.3333e-08
      68.3012  1.44977e-08
      68.1583  1.57641e-08
      68.0153  1.71409e-08
      67.8723  1.86379e-08
      67.7294  2.02655e-08
      67.5864   2.2035e-08
      67.4435  2.39589e-08
      67.3005  2.60506e-08
      67.1576  2.83247e-08
      67.0146   3.0797e-08
      66.8717   3.3485e-08
      66.7287  3.64073e-08
      66.5857  3.95843e-08
      66.4428  4.30382e-08
      66.2998  4.67932e-08
      66.1569  5.08754e-08
      66.0139  5.53134e-08
       65.871   6.0138e-08
       65.728   6.5383e-08
      65.5851  7.10849e-08
      65.4421  7.72835e-08
      65.2991   8.4022e-08
      65.1562  9.13474e-08
      65.0132  9.93107e-08
      64.8703  1.07967e-07
      64.7273  1.17378e-07
      64.5844  1.27608e-07
      64.4414  1.38728e-07
      64.2985  1.50816e-07
      64.1555  1.63956e-07
      64.0125   1.7824e-07
      63.8696  1.93767e-07
      63.7266  2.10645e-07
      63.5837  2.28991e-07
      63.4407  2.48933e-07
      63.2978   2.7061e-07
      63.1548  2.94172e-07
      63.0119  3.19783e-07
      62.8689  3.47622e-07
      62.7259  3.77881e-07
       62.583  4.10771e-07
        62.44  4.46521e-07
      62.2971  4.85377e-07
      62.1541  5.27612e-07
      62.0112  5.73517e-07
      61.8682  6.23411e-07
      61.7253   6.7764e-07
      61.5823  7.36582e-07
      61.4393  8.00643e-07
      61.2964   8.7027e-07
      61.1534  9.45945e-07
      61.0105  1.02819e-06
      60.8675  1.11758e-06
      60.7246  1.21473e-06
      60.5816  1.32032e-06
      60.4387  1.43507e-06
      60.2957  1.55979e-06
      60.1528  1.69533e-06
      60.0098  1.84263e-06
      59.8668  2.00272e-06
      59.7239  2.17669e-06
      59.5809  2.36577e-06
       59.438  2.57124e-06
       59.295  2.79454e-06
      59.1521  3.03721e-06
      59.0091  3.30093e-06
      58.8662  3.58751e-06
      58.7232  3.89895e-06
      58.5802  4.23739e-06
      58.4373  4.60516e-06
      58.2943  5.00482e-06
      58.1514  5.43913e-06
      58.0084  5.91107e-06
      57.8655  6.42391e-06
      57.7225  6.98118e-06
      57.5796  7.58674e-06
      57.4366  8.24477e-06
      57.2936  8.95979e-06
      57.1507  9.73674e-06
      57.0077   1.0581e-05
      56.8648  1.14983e-05
      56.7218  1.24951e-05
      56.5789  1.35782e-05
      56.4359   1.4755e-05
       56.293  1.60338e-05
        56.15  1.74232e-05
       56.007  1.89328e-05
      55.8641   2.0573e-05
      55.7211  2.23552e-05
      55.5782  2.42916e-05
      55.4352  2.63955e-05
      55.2923  2.86814e-05
      55.1493  3.11649e-05
      55.0064  3.38633e-05
      54.8634  3.67949e-05
      54.7204  3.99801e-05
      54.5775  4.34406e-05
      54.4345  4.72002e-05
      54.2916  5.12848e-05
      54.1486  5.57224e-05
      54.0057  6.05435e-05
      53.8627  6.57811e-05
      53.7198  7.14713e-05
      53.5768   7.7653e-05
      53.4338  8.43687e-05
      53.2909  9.16644e-05
      53.1479  9.95901e-05
       53.005    0.0001082
       52.862  0.000117554
      52.7191  0.000127715
      52.5761  0.000138753
      52.4332  0.000150744
      52.2902  0.000163769
      52.1473  0.000177919
      52.0043   0.00019329
      51.8613  0.000209986
      51.7184  0.000228123
      51.5754  0.000247825
      51.4325  0.000269225
      51.2895  0.000292471
      51.1466  0.000317722
      51.0036  0.000345149
      50.8607  0.000374941
      50.7177  0.000407301
      50.5747  0.000442449
      50.4318  0.000480627
      50.2888  0.000522095
      50.1459  0.000567135
      50.0029  0.000616056
        49.86   0.00066919
       49.717  0.000726901
      49.5741  0.000789582
      49.4311   0.00085766
      49.2881    0.0009316
      49.1452   0.00101191
      49.0022   0.00109912
      48.8593   0.00119385
      48.7163   0.00129673
      48.5734   0.00140846
      48.4304    0.0015298
      48.2875   0.00166158
      48.1445    0.0018047
      48.0015   0.00196013
      47.8586   0.00212892
      47.7156   0.00231223
      47.5727    0.0025113
      47.4297   0.00272749
      47.2868   0.00296225
      47.1438    0.0032172
      47.0009   0.00349406
      46.8579   0.00379471
      46.7149   0.00412119
       46.572   0.00447571
       46.429   0.00486069
      46.2861   0.00527874
      46.1431   0.00573269
      46.0002   0.00622562
      45.8572   0.00676087
      45.7143   0.00734207
      45.5713   0.00797316
      45.4284   0.00865842
      45.2854   0.00940248
      45.1424    0.0102104
      44.9995    0.0110876
      44.8565    0.0120401
      44.7136    0.0130743
      44.5706    0.0141972
      44.4277    0.0154163
      44.2847      0.01674
      44.1418    0.0181772
      43.9988    0.0197376
      43.8558    0.0214318
      43.7129    0.0232711
      43.5699    0.0252681
       43.427    0.0274362
       43.284      0.02979
      43.1411    0.0323454
      42.9981    0.0351197
      42.8552    0.0381316
      42.7122    0.0414014
      42.5692    0.0449512
      42.4263    0.0488048
      42.2833    0.0529884
      42.1404    0.0575299
      41.9974    0.0624601
      41.8545    0.0678122
      41.7115    0.0736221
      41.5686    0.0799291
      41.4256    0.0867755
      41.2826    0.0942074
      41.1397     0.102275
      40.9967     0.111032
      40.8538     0.120538
      40.7108     0.130856
      40.5679     0.142056
      40.4249     0.154214
       40.282      0.16741
       40.139     0.181733
       39.996     0.197281
      39.8531     0.214156
      39.7101     0.232472
      39.5672     0.252352
      39.4242     0.273929
      39.2813     0.297349
      39.1383     0.322767
      38.9954     0.350355
      38.8524     0.380297
      38.7094     0.412794
      38.5665     0.448063
      38.4235      0.48634
      38.2806     0.527882
      38.1376     0.572967
      37.9947     0.621896
      37.8517     0.674996
      37.7088     0.732623
      37.5658     0.795162
      37.4229     0.863029
      37.2799      0.93668
      37.1369      1.01661
       36.994      1.10334
       36.851      1.19746
      36.7081       1.2996
      36.5651      1.41043
      36.4222      1.53071
      36.2792      1.66122
      36.1363      1.80283
      35.9933       1.9565
      35.8503      2.12325
      35.7074      2.30419
      35.5644      2.50051
      35.4215      2.71354
      35.2785      2.94468
      35.1356      3.19548
      34.9926       3.4676
      34.8497      3.76285
      34.7067       4.0832
      34.5637      4.43078
      34.4208      4.80789
      34.2778      5.21704
      34.1349      5.66095
      33.9919      6.14257
       33.849      6.66509
       33.706      7.23198
      33.5631      7.84699
      33.4201      8.51422
      33.2771      9.23809
      33.1342      10.0234
      32.9912      10.8753
      32.8483      11.7995
      32.7053      12.8021
      32.5624      13.8898
      32.4194      15.0697
      32.2765      16.3496
      32.1335      17.7381
      31.9905      19.2442
      31.8476       20.878
      31.7046      22.6503
      31.5617      24.5728
      31.4187      26.6581
      31.2758        28.92
      31.1328      31.3735
      30.9899      34.0348
      30.8469      36.9215
      30.7039      40.0525
       30.561      43.4485
       30.418       47.132
      30.2751      51.1271
      30.1321      55.4603
      29.9892        60.16
      29.8462      65.2572
      29.7033      70.7855
      29.5603      76.7812
      29.4174      83.2839
      29.2744      90.3362
      29.1314      97.9846
      28.9885      106.279
      28.8455      115.275
      28.7026       125.03
      28.5596       135.61
      28.4167      147.083
      28.2737      159.525
      28.1308      173.017
      27.9878      187.648
      27.8448      203.514
      27.7019      220.719
      27.5589      239.376
       27.416      259.606
       27.273      281.543
      27.1301       305.33
      26.9871      331.123
      26.8442      359.091
      26.7012      389.416
      26.5582      422.296
      26.4153      457.948
      26.2723      496.604
      26.1294      538.516
      25.9864      583.958
      25.8435      633.228
      25.7005      686.646
      25.5576      744.561
      25.4146      807.351
      25.2716      875.426
      25.1287       949.23
      24.9857      1029.24
      24.8428      1115.99
      24.6998      1210.03
      24.5569      1311.97
      24.4139      1422.49
       24.271       1542.3
       24.128      1672.18
       23.985      1812.98
      23.8421       1965.6
      23.6991      2131.05
      23.5562       2310.4
      23.4132      2504.81
      23.2703      2715.54
      23.1273      2943.96
      22.9844      3191.56
      22.8414      3459.94
      22.6984      3750.84
      22.5555      4066.15
      22.4125       4407.9
      22.2696      4778.32
      22.1266      5179.81
      21.9837      5614.95
      21.8407      6086.57
      21.6978      6597.72
      21.5548      7151.71
      21.4119       7752.1
      21.2689       8402.8
      21.1259         9108
       20.983      9872.25
        20.84      10700.5
      20.6971      11598.1
      20.5541      12570.8
      20.4112      13624.9
      20.2682      14767.2
      20.1253        16005
      19.9823      17346.4
      19.8393        18800
      19.6964      20375.1
      19.5534      22081.9
      19.4105      23931.3
      19.2675      25935.3
      19.1246      28106.7
      18.9816      30459.5
      18.8387      33008.8
      18.6957        35771
      18.5527      38763.9
      18.4098      42006.6
      18.2668      45519.9
      18.1239      49326.4
      17.9809      53450.5
       17.838      57918.5
       17.695      62759.3
      17.5521      68003.7
      17.4091      73685.3
      17.2661      79840.5
      17.1232      86508.7
      16.9802      93732.6
      16.8373       101558
      16.6943       110036
      16.5514       119219
      16.4084       129167
      16.2655       139944
      16.1225       151617
      15.9795       164261
      15.8366       177958
      15.6936       192794
      15.5507       208864
      15.4077       226270
      15.2648       245124
      15.1218       265544
      14.9789       287662
      14.8359       311617
       14.693       337563
        14.55       365663
       14.407       396098
      14.2641       429059
      14.1211       464756
      13.9782       503415
      13.8352       545283
      13.6923       590624
      13.5493       639727
      13.4064       692901
      13.2634       750484
      13.1204       812840
      12.9775       880365
      12.8345       953485
      12.6916  1.03266e+06
      12.5486   1.1184e+06
      12.4057  1.21124e+06
      12.2627  1.31176e+06
      12.1198   1.4206e+06
      11.9768  1.53846e+06
      11.8338  1.66606e+06
      11.6909  1.80423e+06
      11.5479  1.95382e+06
       11.405  2.11578e+06
       11.262  2.29113e+06
      11.1191  2.48098e+06
      10.9761  2.68652e+06
      10.8332  2.90905e+06
      10.6902  3.14996e+06
      10.5472  3.41076e+06
      10.4043  3.69311e+06
      10.2613  3.99876e+06
      10.1184  4.32965e+06
      9.97542  4.68784e+06
      9.83247  5.07559e+06
      9.68951  5.49533e+06
      9.54656  5.94968e+06
       9.4036  6.44151e+06
      9.26065  6.97387e+06
      9.11769  7.55012e+06
      8.97474  8.17386e+06
      8.83178  8.84898e+06
      8.68883  9.57972e+06
      8.54587  1.03706e+07
      8.40292  1.12267e+07
      8.25996  1.21532e+07
        8.117  1.31559e+07
      7.97405  1.42412e+07
      7.83109  1.54158e+07
      7.68814  1.66869e+07
      7.54518  1.80626e+07
      7.40223  1.95514e+07
      7.25927  2.11625e+07
      7.11632  2.29061e+07
      6.97336  2.47929e+07
      6.83041  2.68346e+07
      6.68745  2.90441e+07
       6.5445   3.1435e+07
      6.40154  3.40221e+07
      6.25859  3.68215e+07
      6.11563  3.98506e+07
      5.97267  4.31282e+07
      5.82972  4.66747e+07
      5.68676  5.05119e+07
      5.54381  5.46636e+07
      5.40085  5.91556e+07
       5.2579  6.40157e+07
      5.11494   6.9274e+07
      4.97199  7.49629e+07
      4.82903  8.11176e+07
      4.68608  8.77761e+07
      4.54312  9.49796e+07
      4.40017  1.02773e+08
      4.25721  1.11203e+08
      4.11425  1.20323e+08
       3.9713  1.30189e+08
      3.82834  1.40861e+08
      3.68539  1.52405e+08
      3.54243  1.64893e+08
      3.39948  1.78401e+08
      3.25652  1.93012e+08
      3.11357  2.08816e+08
      2.97061   2.2591e+08
      2.82766    2.444e+08
       2.6847  2.64398e+08
      2.54175  2.86027e+08
      2.39879   3.0942e+08
      2.25584  3.34721e+08
      2.11288  3.62084e+08
      1.96992  3.91678e+08
      1.82697  4.23682e+08
      1.68401  4.58294e+08
      1.54106  4.95724e+08
       1.3981  5.36202e+08
      1.25515  5.79974e+08
      1.11219  6.27309e+08
     0.969237  6.78495e+08
     0.826282  7.33844e+08
     0.683327  7.93694e+08
     0.540371  8.58409e+08
     0.397416  9.28385e+08
     0.254461  1.00405e+09
     0.111505  1.08585e+09
   -0.0314502   1.1743e+09
    -0.174406  1.26994e+09
    -0.317361  1.37333e+09
    -0.460316  1.48512e+09
    -0.603272  1.60598e+09
    -0.746227  1.73664e+09
    -0.889182  1.87789e+09
     -1.03214   2.0306e+09
     -1.17509  2.19568e+09
     -1.31805  2.37414e+09
       -1.461  2.56706e+09
     -1.60396   2.7756e+09
     -1.74691  3.00102e+09
     -1.88987  3.24469e+09
     -2.03283  3.50809e+09
     -2.17578  3.79279e+09
     -2.31874  4.10051e+09
     -2.46169  4.43312e+09
     -2.60465  4.79262e+09
      -2.7476  5.18117e+09
     -2.89056  5.60112e+09
     -3.03351  6.05498e+09
     -3.17647   6.5455e+09
     -3.31942  7.07562e+09
     -3.46238  7.64852e+09
     -3.60533  8.26764e+09
     -3.74829  8.93671e+09
     -3.89124  9.65974e+09
      -4.0342   1.0441e+10
     -4.17716  1.12853e+10
     -4.32011  1.21976e+10
     -4.46307  1.31834e+10
     -4.60602  1.42486e+10
     -4.74898  1.53996e+10
     -4.89193  1.66432e+10
     -5.03489  1.79868e+10
     -5.17784  1.94385e+10
      -5.3208   2.1007e+10
     -5.46375  2.27016e+10
     -5.60671  2.45324e+10
     -5.74966  2.65102e+10
     -5.89262   2.8647e+10
     -6.03557  3.09553e+10
     -6.17853   3.3449e+10
     -6.32149  3.61428e+10
     -6.46444  3.90528e+10
      -6.6074  4.21962e+10
     -6.75035  4.55917e+10
     -6.89331  4.92593e+10
     -7.03626  5.32209e+10
     -7.17922     5.75e+10
     -7.32217  6.21217e+10
     -7.46513  6.71136e+10
     -7.60808  7.25051e+10
     -7.75104   7.8328e+10
     -7.89399  8.46167e+10
     -8.03695  9.14084e+10
      -8.1799  9.87432e+10
     -8.32286  1.06664e+11
     -8.46582  1.15218e+11
     -8.60877  1.24455e+11
     -8.75173   1.3443e+11
     -8.89468  1.45201e+11
     -9.03764  1.56832e+11
     -9.18059  1.69391e+11
     -9.32355  1.82951e+11
      -9.4665  1.97593e+11
     -9.60946  2.13402e+11
     -9.75241  2.30471e+11
     -9.89537  2.48899e+11
     -10.0383  2.68795e+11
     -10.1813  2.90275e+11
     -10.3242  3.13464e+11
     -10.4672  3.38498e+11
     -10.6101  3.65524e+11
     -10.7531  3.94699e+11
     -10.8961  4.26192e+11
      -11.039  4.60189e+11
      -11.182  4.96886e+11
     -11.3249  5.36497e+11
     -11.4679  5.79252e+11
     -11.6108  6.25401e+11
     -11.7538  6.75212e+11
     -11.8967  7.28972e+11
     -12.0397  7.86995e+11
     -12.1827  8.49617e+11
     -12.3256  9.17201e+11
     -12.4686  9.90137e+11
     -12.6115  1.06885e+12
     -12.7545  1.15379e+12
     -12.8974  1.24545e+12
     -13.0404  1.34436e+12
     -13.1833   1.4511e+12
     -13.3263  1.56627e+12
     -13.4693  1.69054e+12
     -13.6122  1.82463e+12
     -13.7552   1.9693e+12
     -13.8981   2.1254e+12
     -14.0411  2.29381e+12
      -14.184  2.47551e+12
      -14.327  2.67154e+12
     -14.4699  2.88302e+12
     -14.6129  3.11117e+12
     -14.7559  3.35729e+12
     -14.8988  3.62279e+12
     -15.0418   3.9092e+12
     -15.1847  4.21814e+12
     -15.3277  4.55139e+12
     -15.4706  4.91085e+12
     -15.6136  5.29856e+12
     -15.7565  5.71675e+12
     -15.8995  6.16778e+12
     -16.0424  6.65424e+12
     -16.1854  7.17888e+12
     -16.3284   7.7447e+12
     -16.4713  8.35489e+12
     -16.6143  9.01294e+12
     -16.7572  9.72257e+12
     -16.9002  1.04878e+13
     -17.0431  1.13129e+13
     -17.1861  1.22027e+13
      -17.329  1.31621e+13
      -17.472  1.41966e+13
      -17.615   1.5312e+13
     -17.7579  1.65146e+13
     -17.9009  1.78111e+13
     -18.0438   1.9209e+13
     -18.1868   2.0716e+13
     -18.3297  2.23407e+13
     -18.4727  2.40921e+13
     -18.6156  2.59802e+13
     -18.7586  2.80155e+13
     -18.9016  3.02094e+13
     -19.0445  3.25743e+13
     -19.1875  3.51234e+13
     -19.3304  3.78709e+13
     -19.4734  4.08323e+13
     -19.6163  4.40241e+13
     -19.7593  4.74642e+13
     -19.9022  5.11716e+13
     -20.0452  5.51671e+13
     -20.1882  5.94729e+13
     -20.3311  6.41132e+13
     -20.4741  6.91136e+13
      -20.617  7.45018e+13
       -20.76  8.03079e+13
     -20.9029  8.65642e+13
     -21.0459  9.33051e+13
     -21.1888  1.00568e+14
     -21.3318  1.08393e+14
     -21.4748  1.16824e+14
     -21.6177  1.25907e+14
     -21.7607  1.35692e+14
     -21.9036  1.46234e+14
     -22.0466   1.5759e+14
     -22.1895  1.69824e+14
     -22.3325  1.83001e+14
     -22.4754  1.97195e+14
     -22.6184  2.12485e+14
     -22.7614  2.28952e+14
     -22.9043  2.46689e+14
     -23.0473  2.65792e+14
     -23.1902  2.86366e+14
     -23.3332  3.08524e+14
     -23.4761  3.32387e+14
     -23.6191  3.58085e+14
      -23.762  3.85758e+14
      -23.905  4.15558e+14
     -24.0479  4.47647e+14
     -24.1909  4.82199e+14
     -24.3339  5.19401e+14
     -24.4768  5.59458e+14
     -24.6198  6.02587e+14
     -24.7627   6.4902e+14
     -24.9057   6.9901e+14
     -25.0486  7.52827e+14
     -25.1916  8.10763e+14
     -25.3345   8.7313e+14
     -25.4775  9.40264e+14
     -25.6205  1.01253e+15
     -25.7634  1.09031e+15
     -25.9064  1.17403e+15
     -26.0493  1.26414e+15
     -26.1923  1.36112e+15
     -26.3352   1.4655e+15
     -26.4782  1.57784e+15
     -26.6211  1.69873e+15
     -26.7641  1.82882e+15
     -26.9071  1.96881e+15
       -27.05  2.11945e+15
      -27.193  2.28154e+15
     -27.3359  2.45594e+15
     -27.4789  2.64359e+15
     -27.6218   2.8455e+15
     -27.7648  3.06272e+15
     -27.9077  3.29642e+15
     -28.0507  3.54784e+15
     -28.1937  3.81831e+15
     -28.3366  4.10927e+15
     -28.4796  4.42225e+15
     -28.6225   4.7589e+15
     -28.7655  5.12102e+15
     -28.9084  5.51052e+15
     -29.0514  5.92943e+15
     -29.1943  6.37998e+15
     -29.3373  6.86452e+15
     -29.4803  7.38561e+15
     -29.6232  7.94598e+15
     -29.7662  8.54855e+15
     -29.9091  9.19648e+15
     -30.0521  9.89321e+15
      -30.195  1.06423e+16
      -30.338  1.14477e+16
