Temperature = 1657.04K
THERMAL DISTRIBUTIONS:
  E, kcal/mol           W1
      145.203        0.109
       145.06     0.113099
      144.917     0.117353
      144.774     0.121766
      144.631     0.126344
      144.488     0.131094
      144.345     0.136022
      144.202     0.141135
      144.059     0.146439
      143.916     0.151943
      143.773     0.157652
       143.63     0.163576
      143.487     0.169721
      143.344     0.176097
      143.201     0.182712
      143.058     0.189574
      142.915     0.196693
      142.772     0.204079
      142.629     0.211742
      142.486     0.219692
      142.343     0.227939
      142.201     0.236495
      142.058     0.245371
      141.915      0.25458
      141.772     0.264133
      141.629     0.274043
      141.486     0.284325
      141.343     0.294991
        141.2     0.306056
      141.057     0.317535
      140.914     0.329443
      140.771     0.341797
      140.628     0.354612
      140.485     0.367907
      140.342     0.381699
      140.199     0.396006
      140.056     0.410848
      139.913     0.426245
       139.77     0.442218
      139.627     0.458787
      139.484     0.475975
      139.341     0.493805
      139.198     0.512301
      139.056     0.531488
      138.913     0.551392
       138.77     0.572039
      138.627     0.593457
      138.484     0.615674
      138.341     0.638721
      138.198     0.662628
      138.055     0.687428
      137.912     0.713153
      137.769     0.739837
      137.626     0.767518
      137.483     0.796231
       137.34     0.826015
      137.197      0.85691
      137.054     0.888957
      136.911       0.9222
      136.768     0.956681
      136.625     0.992449
      136.482      1.02955
      136.339      1.06803
      136.196      1.10795
      136.053      1.14936
      135.911       1.1923
      135.768      1.23685
      135.625      1.28306
      135.482      1.33099
      135.339      1.38071
      135.196      1.43227
      135.053      1.48576
       134.91      1.54123
      134.767      1.59878
      134.624      1.65846
      134.481      1.72037
      134.338      1.78458
      134.195      1.85118
      134.052      1.92026
      133.909      1.99191
      133.766      2.06622
      133.623       2.1433
       133.48      2.22324
      133.337      2.30616
      133.194      2.39216
      133.051      2.48136
      132.908      2.57387
      132.765      2.66982
      132.623      2.76934
       132.48      2.87256
      132.337      2.97962
      132.194      3.09065
      132.051       3.2058
      131.908      3.32523
      131.765       3.4491
      131.622      3.57757
      131.479      3.71081
      131.336        3.849
      131.193      3.99232
       131.05      4.14095
      130.907      4.29511
      130.764      4.45498
      130.621      4.62079
      130.478      4.79275
      130.335      4.97109
      130.192      5.15605
      130.049      5.34786
      129.906      5.54679
      129.763       5.7531
       129.62      5.96706
      129.478      6.18894
      129.335      6.41906
      129.192       6.6577
      129.049      6.90519
      128.906      7.16185
      128.763      7.42801
       128.62      7.70404
      128.477       7.9903
      128.334      8.28716
      128.191      8.59501
      128.048      8.91426
      127.905      9.24533
      127.762      9.58866
      127.619       9.9447
      127.476      10.3139
      127.333      10.6968
       127.19      11.0939
      127.047      11.5056
      126.904      11.9326
      126.761      12.3753
      126.618      12.8345
      126.475      13.3106
      126.332      13.8043
       126.19      14.3163
      126.047      14.8472
      125.904      15.3978
      125.761      15.9687
      125.618      16.5607
      125.475      17.1745
      125.332      17.8111
      125.189      18.4711
      125.046      19.1556
      124.903      19.8653
       124.76      20.6012
      124.617      21.3643
      124.474      22.1556
      124.331      22.9761
      124.188      23.8269
      124.045      24.7091
      123.902      25.6238
      123.759      26.5723
      123.616      27.5558
      123.473      28.5756
       123.33      29.6329
      123.187      30.7293
      123.045      31.8661
      122.902      33.0448
      122.759       34.267
      122.616      35.5342
      122.473      36.8482
       122.33      38.2105
      122.187      39.6231
      122.044      41.0877
      121.901      42.6062
      121.758      44.1807
      121.615      45.8132
      121.472      47.5058
      121.329      49.2607
      121.186      51.0803
      121.043      52.9668
        120.9      54.9227
      120.757      56.9507
      120.614      59.0532
      120.471      61.2332
      120.328      63.4933
      120.185      65.8365
      120.042       68.266
        119.9      70.7848
      119.757      73.3962
      119.614      76.1036
      119.471      78.9106
      119.328      81.8207
      119.185      84.8377
      119.042      87.9657
      118.899      91.2085
      118.756      94.5706
      118.613      98.0561
       118.47       101.67
      118.327      105.416
      118.184        109.3
      118.041      113.326
      117.898        117.5
      117.755      121.827
      117.612      126.314
      117.469      130.965
      117.326      135.786
      117.183      140.784
       117.04      145.966
      116.897      151.338
      116.754      156.906
      116.612      162.679
      116.469      168.664
      116.326      174.868
      116.183      181.299
       116.04      187.966
      115.897      194.878
      115.754      202.042
      115.611      209.469
      115.468      217.168
      115.325      225.149
      115.182      233.422
      115.039      241.998
      114.896      250.889
      114.753      260.104
       114.61      269.657
      114.467      279.559
      114.324      289.824
      114.181      300.464
      114.038      311.494
      113.895      322.927
      113.752      334.778
      113.609      347.062
      113.467      359.795
      113.324      372.994
      113.181      386.676
      113.038      400.857
      112.895      415.556
      112.752      430.793
      112.609      446.586
      112.466      462.956
      112.323      479.924
       112.18      497.511
      112.037      515.741
      111.894      534.636
      111.751      554.221
      111.608       574.52
      111.465       595.56
      111.322      617.368
      111.179      639.972
      111.036      663.399
      110.893      687.682
       110.75       712.85
      110.607      738.935
      110.464      765.971
      110.322      793.993
      110.179      823.036
      110.036      853.138
      109.893      884.336
       109.75      916.671
      109.607      950.184
      109.464      984.917
      109.321      1020.91
      109.178      1058.22
      109.035      1096.89
      108.892      1136.96
      108.749       1178.5
      108.606      1221.54
      108.463      1266.15
       108.32      1312.38
      108.177       1360.3
      108.034      1409.96
      107.891      1461.42
      107.748      1514.75
      107.605      1570.03
      107.462      1627.31
      107.319      1686.67
      107.176      1748.19
      107.034      1811.95
      106.891      1878.02
      106.748      1946.49
      106.605      2017.45
      106.462      2090.99
      106.319      2167.19
      106.176      2246.16
      106.033         2328
       105.89      2412.81
      105.747      2500.69
      105.604      2591.77
      105.461      2686.14
      105.318      2783.94
      105.175      2885.29
      105.032      2990.31
      104.889      3099.14
      104.746      3211.91
      104.603      3328.77
       104.46      3449.87
      104.317      3575.35
      104.174      3705.38
      104.031      3840.12
      103.889      3979.74
      103.746      4124.41
      103.603      4274.32
       103.46      4429.66
      103.317      4590.62
      103.174      4757.41
      103.031      4930.23
      102.888       5109.3
      102.745      5294.85
      102.602      5487.12
      102.459      5686.33
      102.316      5892.75
      102.173      6106.63
       102.03      6328.24
      101.887      6557.86
      101.744      6795.77
      101.601      7042.29
      101.458       7297.7
      101.315      7562.34
      101.172      7836.54
      101.029      8120.64
      100.886         8415
      100.743      8719.98
      100.601      9035.97
      100.458      9363.36
      100.315      9702.56
      100.172        10054
      100.029      10418.1
      99.8858      10795.4
      99.7428      11186.2
      99.5998      11591.2
      99.4569      12010.7
      99.3139      12445.3
       99.171      12895.7
       99.028      13362.2
      98.8851      13845.6
      98.7421      14346.3
      98.5992      14865.1
      98.4562      15402.6
      98.3133      15959.4
      98.1703      16536.3
      98.0273      17133.9
      97.8844        17753
      97.7414      18394.4
      97.5985      19058.9
      97.4555      19747.3
      97.3126      20460.4
      97.1696      21199.2
      97.0267      21964.5
      96.8837      22757.4
      96.7407      23578.7
      96.5978      24429.6
      96.4548        25311
      96.3119      26224.1
      96.1689      27169.9
       96.026      28149.8
       95.883      29164.8
      95.7401      30216.3
      95.5971      31305.5
      95.4541      32433.7
      95.3112      33602.5
      95.1682      34813.2
      95.0253      36067.3
      94.8823      37366.4
      94.7394      38712.1
      94.5964        40106
      94.4535      41549.9
      94.3105      43045.6
      94.1675      44594.8
      94.0246      46199.6
      93.8816      47861.8
      93.7387      49583.5
      93.5957        51367
      93.4528      53214.2
      93.3098      55127.6
      93.1669      57109.5
      93.0239      59162.3
      92.8809      61288.6
       92.738      63490.9
       92.595        65772
      92.4521      68134.7
      92.3091      70581.9
      92.1662      73116.5
      92.0232      75741.7
      91.8803      78460.8
      91.7373        81277
      91.5943      84193.9
      91.4514      87214.9
      91.3084      90343.8
      91.1655      93584.5
      91.0225      96940.9
      90.8796       100417
      90.7366       104017
      90.5937       107746
      90.4507       111608
      90.3078       115607
      90.1648       119749
      90.0218       124039
      89.8789       128482
      89.7359       133083
       89.593       137848
        89.45       142783
      89.3071       147894
      89.1641       153187
      89.0212       158668
      88.8782       164345
      88.7352       170223
      88.5923       176311
      88.4493       182616
      88.3064       189145
      88.1634       195906
      88.0205       202908
      87.8775       210158
      87.7346       217667
      87.5916       225443
      87.4486       233495
      87.3057       241833
      87.1627       250467
      87.0198       259409
      86.8768       268667
      86.7339       278255
      86.5909       288183
       86.448       298464
       86.305       309109
       86.162       320133
      86.0191       331547
      85.8761       343367
      85.7332       355605
      85.5902       368278
      85.4473       381400
      85.3043       394988
      85.1614       409057
      85.0184       423624
      84.8754       438708
      84.7325       454326
      84.5895       470497
      84.4466       487241
      84.3036       504578
      84.1607       522529
      84.0177       541115
      83.8748       560358
      83.7318       580283
      83.5889       600912
      83.4459       622271
      83.3029       644385
        83.16       667281
       83.017       690987
      82.8741       715530
      82.7311       740940
      82.5882       767248
      82.4452       794485
      82.3023       822685
      82.1593       851879
      82.0163       882105
      81.8734       913397
      81.7304       945794
      81.5875       979333
      81.4445  1.01406e+06
      81.3016     1.05e+06
      81.1586  1.08722e+06
      81.0157  1.12574e+06
      80.8727  1.16563e+06
      80.7297  1.20692e+06
      80.5868  1.24967e+06
      80.4438  1.29392e+06
      80.3009  1.33973e+06
      80.1579  1.38715e+06
       80.015  1.43624e+06
       79.872  1.48706e+06
      79.7291  1.53967e+06
      79.5861  1.59413e+06
      79.4431  1.65051e+06
      79.3002  1.70887e+06
      79.1572  1.76928e+06
      79.0143  1.83181e+06
      78.8713  1.89655e+06
      78.7284  1.96356e+06
      78.5854  2.03292e+06
      78.4425  2.10472e+06
      78.2995  2.17904e+06
      78.1565  2.25598e+06
      78.0136  2.33561e+06
      77.8706  2.41804e+06
      77.7277  2.50336e+06
      77.5847  2.59168e+06
      77.4418  2.68309e+06
      77.2988  2.77772e+06
      77.1559  2.87566e+06
      77.0129  2.97703e+06
      76.8699  3.08196e+06
       76.727  3.19056e+06
       76.584  3.30297e+06
      76.4411  3.41932e+06
      76.2981  3.53975e+06
      76.1552  3.66439e+06
      76.0122  3.79339e+06
      75.8693  3.92692e+06
      75.7263  4.06511e+06
      75.5834  4.20814e+06
      75.4404  4.35618e+06
      75.2974  4.50939e+06
      75.1545  4.66796e+06
      75.0115  4.83207e+06
      74.8686  5.00192e+06
      74.7256  5.17771e+06
      74.5827  5.35964e+06
      74.4397  5.54793e+06
      74.2968  5.74279e+06
      74.1538  5.94445e+06
      74.0108  6.15316e+06
      73.8679  6.36915e+06
      73.7249  6.59268e+06
       73.582  6.82401e+06
       73.439  7.06341e+06
      73.2961  7.31116e+06
      73.1531  7.56755e+06
      73.0102  7.83287e+06
      72.8672  8.10744e+06
      72.7242  8.39158e+06
      72.5813  8.68562e+06
      72.4383  8.98991e+06
      72.2954  9.30478e+06
      72.1524  9.63063e+06
      72.0095  9.96781e+06
      71.8665  1.03167e+07
      71.7236  1.06778e+07
      71.5806  1.10514e+07
      71.4376   1.1438e+07
      71.2947  1.18381e+07
      71.1517  1.22521e+07
      71.0088  1.26804e+07
      70.8658  1.31237e+07
      70.7229  1.35823e+07
      70.5799  1.40569e+07
       70.437  1.45479e+07
       70.294   1.5056e+07
       70.151  1.55818e+07
      70.0081  1.61258e+07
      69.8651  1.66886e+07
      69.7222   1.7271e+07
      69.5792  1.78736e+07
      69.4363  1.84971e+07
      69.2933  1.91422e+07
      69.1504  1.98096e+07
      69.0074  2.05002e+07
      68.8644  2.12147e+07
      68.7215   2.1954e+07
      68.5785  2.27188e+07
      68.4356  2.35102e+07
      68.2926  2.43289e+07
      68.1497   2.5176e+07
      68.0067  2.60523e+07
      67.8638   2.6959e+07
      67.7208  2.78971e+07
      67.5779  2.88675e+07
      67.4349  2.98715e+07
      67.2919  3.09103e+07
       67.149  3.19849e+07
       67.006  3.30966e+07
      66.8631  3.42467e+07
      66.7201  3.54365e+07
      66.5772  3.66674e+07
      66.4342  3.79408e+07
      66.2913  3.92581e+07
      66.1483  4.06209e+07
      66.0053  4.20307e+07
      65.8624   4.3489e+07
      65.7194  4.49977e+07
      65.5765  4.65583e+07
      65.4335  4.81727e+07
      65.2906  4.98428e+07
      65.1476  5.15703e+07
      65.0047  5.33573e+07
      64.8617  5.52059e+07
      64.7187  5.71181e+07
      64.5758   5.9096e+07
      64.4328   6.1142e+07
      64.2899  6.32584e+07
      64.1469  6.54476e+07
       64.004   6.7712e+07
       63.861  7.00542e+07
      63.7181  7.24769e+07
      63.5751  7.49828e+07
      63.4321  7.75748e+07
      63.2892  8.02558e+07
      63.1462  8.30288e+07
      63.0033   8.5897e+07
      62.8603  8.88636e+07
      62.7174  9.19319e+07
      62.5744  9.51055e+07
      62.4315  9.83879e+07
      62.2885  1.01783e+08
      62.1455  1.05294e+08
      62.0026  1.08926e+08
      61.8596  1.12682e+08
      61.7167  1.16566e+08
      61.5737  1.20584e+08
      61.4308  1.24739e+08
      61.2878  1.29036e+08
      61.1449   1.3348e+08
      61.0019  1.38077e+08
       60.859   1.4283e+08
       60.716  1.47746e+08
       60.573   1.5283e+08
      60.4301  1.58088e+08
      60.2871  1.63525e+08
      60.1442  1.69148e+08
      60.0012  1.74963e+08
      59.8583  1.80976e+08
      59.7153  1.87195e+08
      59.5724  1.93626e+08
      59.4294  2.00276e+08
      59.2864  2.07153e+08
      59.1435  2.14264e+08
      59.0005  2.21618e+08
      58.8576  2.29223e+08
      58.7146  2.37086e+08
      58.5717  2.45217e+08
      58.4287  2.53626e+08
      58.2858   2.6232e+08
      58.1428   2.7131e+08
      57.9998  2.80606e+08
      57.8569  2.90219e+08
      57.7139  3.00158e+08
       57.571  3.10435e+08
       57.428  3.21061e+08
      57.2851  3.32049e+08
      57.1421   3.4341e+08
      56.9992  3.55156e+08
      56.8562  3.67302e+08
      56.7132  3.79859e+08
      56.5703  3.92843e+08
      56.4273  4.06268e+08
      56.2844  4.20147e+08
      56.1414  4.34498e+08
      55.9985  4.49334e+08
      55.8555  4.64674e+08
      55.7126  4.80533e+08
      55.5696   4.9693e+08
      55.4266  5.13882e+08
      55.2837  5.31408e+08
      55.1407  5.49527e+08
      54.9978  5.68259e+08
      54.8548  5.87624e+08
      54.7119  6.07645e+08
      54.5689  6.28342e+08
       54.426   6.4974e+08
       54.283   6.7186e+08
        54.14  6.94727e+08
      53.9971  7.18367e+08
      53.8541  7.42805e+08
      53.7112  7.68068e+08
      53.5682  7.94183e+08
      53.4253   8.2118e+08
      53.2823  8.49087e+08
      53.1394  8.77935e+08
      52.9964  9.07755e+08
      52.8535   9.3858e+08
      52.7105  9.70444e+08
      52.5675  1.00338e+09
      52.4246  1.03743e+09
      52.2816  1.07262e+09
      52.1387    1.109e+09
      51.9957   1.1466e+09
      51.8528  1.18546e+09
      51.7098  1.22563e+09
      51.5669  1.26716e+09
      51.4239  1.31007e+09
      51.2809  1.35443e+09
       51.138  1.40028e+09
       50.995  1.44767e+09
      50.8521  1.49665e+09
      50.7091  1.54728e+09
      50.5662   1.5996e+09
      50.4232  1.65368e+09
      50.2803  1.70957e+09
      50.1373  1.76733e+09
      49.9943  1.82703e+09
      49.8514  1.88873e+09
      49.7084   1.9525e+09
      49.5655   2.0184e+09
      49.4225   2.0865e+09
      49.2796  2.15689e+09
      49.1366  2.22963e+09
      48.9937   2.3048e+09
      48.8507  2.38249e+09
      48.7077  2.46277e+09
      48.5648  2.54574e+09
      48.4218  2.63148e+09
      48.2789  2.72008e+09
      48.1359  2.81164e+09
       47.993  2.90625e+09
        47.85  3.00402e+09
      47.7071  3.10506e+09
      47.5641  3.20946e+09
      47.4211  3.31734e+09
      47.2782  3.42882e+09
      47.1352  3.54401e+09
      46.9923  3.66303e+09
      46.8493  3.78603e+09
      46.7064  3.91311e+09
      46.5634  4.04442e+09
      46.4205   4.1801e+09
      46.2775   4.3203e+09
      46.1345  4.46515e+09
      45.9916  4.61482e+09
      45.8486  4.76946e+09
      45.7057  4.92924e+09
      45.5627  5.09432e+09
      45.4198  5.26489e+09
      45.2768  5.44111e+09
      45.1339  5.62318e+09
      44.9909  5.81129e+09
       44.848  6.00563e+09
       44.705  6.20642e+09
       44.562  6.41385e+09
      44.4191  6.62816e+09
      44.2761  6.84957e+09
      44.1332   7.0783e+09
      43.9902  7.31461e+09
      43.8473  7.55873e+09
      43.7043  7.81092e+09
      43.5614  8.07145e+09
      43.4184   8.3406e+09
      43.2754  8.61863e+09
      43.1325  8.90585e+09
      42.9895  9.20255e+09
      42.8466  9.50905e+09
      42.7036  9.82566e+09
      42.5607  1.01527e+10
      42.4177  1.04905e+10
      42.2748  1.08395e+10
      42.1318     1.12e+10
      41.9888  1.15724e+10
      41.8459   1.1957e+10
      41.7029  1.23542e+10
        41.56  1.27646e+10
       41.417  1.31885e+10
      41.2741  1.36263e+10
      41.1311  1.40784e+10
      40.9882  1.45455e+10
      40.8452  1.50279e+10
      40.7022  1.55261e+10
      40.5593  1.60407e+10
      40.4163  1.65723e+10
      40.2734  1.71212e+10
      40.1304  1.76881e+10
      39.9875  1.82737e+10
      39.8445  1.88784e+10
