Temperature = 1419.03K
THERMAL DISTRIBUTIONS:
  E, kcal/mol           W1
      126.284   0.00480196
      126.141   0.00501645
      125.998   0.00524049
      125.855   0.00547452
      125.712   0.00571898
      125.569   0.00597433
      125.426   0.00624105
      125.283   0.00651966
       125.14   0.00681068
      124.997   0.00711465
      124.854   0.00743216
      124.711   0.00776381
      124.568   0.00811023
      124.425   0.00847206
      124.283      0.00885
       124.14   0.00924477
      123.997    0.0096571
      123.854    0.0100878
      123.711    0.0105376
      123.568    0.0110075
      123.425    0.0114982
      123.282    0.0120108
      123.139    0.0125462
      122.996    0.0131054
      122.853    0.0136895
       122.71    0.0142995
      122.567    0.0149367
      122.424    0.0156022
      122.281    0.0162972
      122.138    0.0170232
      121.995    0.0177814
      121.852    0.0185733
      121.709    0.0194004
      121.566    0.0202642
      121.423    0.0211664
       121.28    0.0221087
      121.138    0.0230928
      120.995    0.0241207
      120.852    0.0251941
      120.709    0.0263153
      120.566    0.0274862
      120.423    0.0287091
       120.28    0.0299862
      120.137    0.0313201
      119.994    0.0327131
      119.851     0.034168
      119.708    0.0356874
      119.565    0.0372741
      119.422    0.0389313
      119.279     0.040662
      119.136    0.0424694
      118.993     0.044357
       118.85    0.0463283
      118.707     0.048387
      118.564    0.0505369
      118.421    0.0527821
      118.278    0.0551269
      118.135    0.0575755
      117.992    0.0601326
       117.85    0.0628031
      117.707    0.0655918
      117.564    0.0685041
      117.421    0.0715453
      117.278    0.0747213
      117.135    0.0780378
      116.992    0.0815013
      116.849     0.085118
      116.706    0.0888949
      116.563    0.0928389
       116.42    0.0969575
      116.277     0.101258
      116.134      0.10575
      115.991     0.110439
      115.848     0.115337
      115.705     0.120451
      115.562     0.125791
      115.419     0.131367
      115.276      0.13719
      115.133      0.14327
       114.99      0.14962
      114.847     0.156249
      114.705     0.163172
      114.562     0.170401
      114.419     0.177949
      114.276     0.185831
      114.133     0.194061
       113.99     0.202655
      113.847     0.211628
      113.704     0.220997
      113.561     0.230781
      113.418     0.240996
      113.275     0.251662
      113.132     0.262799
      112.989     0.274428
      112.846      0.28657
      112.703     0.299248
       112.56     0.312485
      112.417     0.326306
      112.274     0.340737
      112.131     0.355805
      111.988     0.371537
      111.845     0.387963
      111.702     0.405113
      111.559      0.42302
      111.417     0.441715
      111.274     0.461236
      111.131     0.481616
      110.988     0.502895
      110.845     0.525111
      110.702     0.548306
      110.559     0.572523
      110.416     0.597807
      110.273     0.624204
       110.13     0.651764
      109.987     0.680538
      109.844     0.710579
      109.701     0.741942
      109.558     0.774686
      109.415     0.808871
      109.272      0.84456
      109.129      0.88182
      108.986      0.92072
      108.843     0.961331
        108.7      1.00373
      108.557      1.04799
      108.414       1.0942
      108.272      1.14244
      108.129       1.1928
      107.986      1.24538
      107.843      1.30027
        107.7      1.35757
      107.557      1.41738
      107.414      1.47983
      107.271      1.54502
      107.128      1.61308
      106.985      1.68412
      106.842      1.75828
      106.699      1.83571
      106.556      1.91653
      106.413       2.0009
       106.27      2.08897
      106.127      2.18091
      105.984      2.27689
      105.841      2.37707
      105.698      2.48166
      105.555      2.59083
      105.412      2.70479
      105.269      2.82375
      105.127      2.94793
      104.984      3.07756
      104.841      3.21286
      104.698       3.3541
      104.555      3.50154
      104.412      3.65543
      104.269      3.81607
      104.126      3.98375
      103.983      4.15877
       103.84      4.34147
      103.697      4.53217
      103.554      4.73122
      103.411      4.93898
      103.268      5.15585
      103.125      5.38221
      102.982      5.61848
      102.839      5.86509
      102.696       6.1225
      102.553      6.39117
       102.41       6.6716
      102.267       6.9643
      102.124       7.2698
      101.981      7.58867
      101.839      7.92148
      101.696      8.26884
      101.553      8.63139
       101.41       9.0098
      101.267      9.40474
      101.124      9.81695
      100.981      10.2472
      100.838      10.6962
      100.695      11.1648
      100.552      11.6539
      100.409      12.1644
      100.266      12.6972
      100.123      13.2532
      99.9801      13.8336
      99.8372      14.4392
      99.6942      15.0713
      99.5512       15.731
      99.4083      16.4195
      99.2653       17.138
      99.1224      17.8878
      98.9794      18.6704
      98.8365      19.4871
      98.6935      20.3394
      98.5506      21.2289
      98.4076      22.1572
      98.2646       23.126
      98.1217      24.1369
      97.9787       25.192
      97.8358       26.293
      97.6928       27.442
      97.5499      28.6411
      97.4069      29.8923
       97.264      31.1981
       97.121      32.5608
       96.978      33.9828
      96.8351      35.4667
      96.6921      37.0152
      96.5492      38.6311
      96.4062      40.3174
      96.2633       42.077
      96.1203      43.9132
      95.9774      45.8293
      95.8344      47.8287
      95.6915      49.9151
      95.5485      52.0922
      95.4055       54.364
      95.2626      56.7345
      95.1196      59.2081
      94.9767      61.7892
      94.8337      64.4825
      94.6908      67.2928
      94.5478      70.2252
      94.4049       73.285
      94.2619      76.4777
      94.1189       79.809
       93.976       83.285
       93.833      86.9119
      93.6901      90.6963
      93.5471       94.645
      93.4042       98.765
      93.2612      103.064
      93.1183      107.549
      92.9753      112.229
      92.8323      117.112
      92.6894      122.206
      92.5464      127.522
      92.4035      133.068
      92.2605      138.855
      92.1176      144.892
      91.9746      151.191
      91.8317      157.763
      91.6887      164.619
      91.5457      171.773
      91.4028      179.237
      91.2598      187.024
      91.1169      195.148
      90.9739      203.623
       90.831      212.466
       90.688      221.691
      90.5451      231.316
      90.4021      241.357
      90.2591      251.833
      90.1162      262.762
      89.9732      274.164
      89.8303      286.058
      89.6873      298.467
      89.5444      311.413
      89.4014      324.918
      89.2585      339.007
      89.1155      353.705
      88.9725      369.038
      88.8296      385.033
      88.6866       401.72
      88.5437      419.127
      88.4007      437.286
      88.2578      456.229
      88.1148       475.99
      87.9719      496.604
      87.8289      518.108
       87.686      540.539
       87.543      563.939
         87.4      588.348
      87.2571       613.81
      87.1141      640.371
      86.9712      668.076
      86.8282      696.977
      86.6853      727.123
      86.5423      758.569
      86.3994       791.37
      86.2564      825.584
      86.1134      861.273
      85.9705      898.499
      85.8275      937.328
      85.6846       977.83
      85.5416      1020.08
      85.3987      1064.14
      85.2557       1110.1
      85.1128      1158.04
      84.9698      1208.04
      84.8268       1260.2
      84.6839       1314.6
      84.5409      1371.34
       84.398      1430.51
       84.255      1492.24
      84.1121      1556.61
      83.9691      1623.76
      83.8262      1693.79
      83.6832      1766.83
      83.5402      1843.01
      83.3973      1922.46
      83.2543      2005.33
      83.1114      2091.75
      82.9684      2181.88
      82.8255      2275.89
      82.6825      2373.93
      82.5396      2476.18
      82.3966      2582.82
      82.2536      2694.03
      82.1107      2810.02
      81.9677      2930.98
      81.8248      3057.12
      81.6818      3188.68
      81.5389      3325.88
      81.3959      3468.96
       81.253      3618.18
        81.11      3773.78
       80.967      3936.06
      80.8241      4105.29
      80.6811      4281.77
      80.5382      4465.81
      80.3952      4657.72
      80.2523      4857.86
      80.1093      5066.56
      79.9664       5284.2
      79.8234      5511.15
      79.6805      5747.81
      79.5375       5994.6
      79.3945      6251.94
      79.2516      6520.29
      79.1086      6800.12
      78.9657       7091.9
      78.8227      7396.17
      78.6798      7713.43
      78.5368      8044.26
      78.3939      8389.22
      78.2509      8748.92
      78.1079      9123.98
       77.965      9515.06
       77.822      9922.84
      77.6791        10348
      77.5361      10791.4
      77.3932      11253.6
      77.2502      11735.6
      77.1073      12238.2
      76.9643      12762.1
      76.8213      13308.5
      76.6784      13878.1
      76.5354        14472
      76.3925      15091.3
      76.2495      15736.9
      76.1066      16410.1
      75.9636      17111.9
      75.8207      17843.6
      75.6777      18606.5
      75.5347      19401.9
      75.3918      20231.2
      75.2488      21095.7
      75.1059      21997.1
      74.9629      22936.8
        74.82      23916.5
       74.677      24937.9
      74.5341      26002.8
      74.3911      27112.9
      74.2481      28270.2
      74.1052      29476.8
      73.9622      30734.6
      73.8193      32045.9
      73.6763      33412.9
      73.5334        34838
      73.3904      36323.6
      73.2475      37872.3
      73.1045      39486.8
      72.9615      41169.8
      72.8186      42924.3
      72.6756      44753.3
      72.5327      46659.8
      72.3897      48647.3
      72.2468      50719.1
      72.1038      52878.7
      71.9609      55129.9
      71.8179      57476.6
       71.675      59922.7
       71.532      62472.5
       71.389      65130.4
      71.2461      67900.9
      71.1031      70788.8
      70.9602      73798.9
      70.8172      76936.6
      70.6743        80207
      70.5313        83616
      70.3884      87169.2
      70.2454      90872.7
      70.1024        94733
      69.9595      98756.5
      69.8165       102950
      69.6736       107321
      69.5306       111877
      69.3877       116626
      69.2447       121575
      69.1018       126733
      68.9588       132109
      68.8158       137712
      68.6729       143552
      68.5299       149639
       68.387       155982
       68.244       162594
      68.1011       169484
      67.9581       176665
      67.8152       184149
      67.6722       191948
      67.5292       200077
      67.3863       208548
      67.2433       217376
      67.1004       226577
      66.9574       236165
      66.8145       246157
      66.6715       256570
      66.5286       267422
      66.3856       278730
      66.2426       290515
      66.0997       302796
      65.9567       315593
      65.8138       328929
      65.6708       342826
      65.5279       357308
      65.3849       372398
       65.242       388123
       65.099       404509
      64.9561       421584
      64.8131       439376
      64.6701       457916
      64.5272       477234
      64.3842       497364
      64.2413       518339
      64.0983       540195
      63.9554       562968
      63.8124       586697
      63.6695       611421
      63.5265       637182
      63.3835       664024
      63.2406       691991
      63.0976       721131
      62.9547       751493
      62.8117       783126
      62.6688       816085
      62.5258       850425
      62.3829       886203
      62.2399       923480
      62.0969       962316
       61.954  1.00278e+06
       61.811  1.04493e+06
      61.6681  1.08885e+06
      61.5251  1.13461e+06
      61.3822  1.18228e+06
      61.2392  1.23195e+06
      61.0963  1.28369e+06
      60.9533  1.33759e+06
      60.8103  1.39375e+06
      60.6674  1.45225e+06
      60.5244   1.5132e+06
      60.3815  1.57669e+06
      60.2385  1.64283e+06
      60.0956  1.71174e+06
      59.9526  1.78352e+06
      59.8097  1.85829e+06
      59.6667  1.93619e+06
      59.5237  2.01734e+06
      59.3808  2.10187e+06
      59.2378  2.18992e+06
      59.0949  2.28165e+06
      58.9519   2.3772e+06
       58.809  2.47673e+06
       58.666  2.58041e+06
      58.5231   2.6884e+06
      58.3801   2.8009e+06
      58.2371  2.91808e+06
      58.0942  3.04013e+06
      57.9512  3.16727e+06
      57.8083   3.2997e+06
      57.6653  3.43764e+06
      57.5224  3.58131e+06
      57.3794  3.73096e+06
      57.2365  3.88683e+06
      57.0935  4.04918e+06
      56.9506  4.21828e+06
      56.8076   4.3944e+06
      56.6646  4.57784e+06
      56.5217   4.7689e+06
      56.3787   4.9679e+06
      56.2358  5.17515e+06
      56.0928  5.39101e+06
      55.9499  5.61582e+06
      55.8069  5.84996e+06
       55.664  6.09382e+06
       55.521  6.34779e+06
       55.378  6.61228e+06
      55.2351  6.88774e+06
      55.0921  7.17462e+06
      54.9492  7.47339e+06
      54.8062  7.78453e+06
      54.6633  8.10856e+06
      54.5203    8.446e+06
      54.3774  8.79742e+06
      54.2344  9.16338e+06
      54.0914  9.54448e+06
      53.9485  9.94135e+06
      53.8055  1.03546e+07
      53.6626   1.0785e+07
      53.5196  1.12332e+07
      53.3767  1.16999e+07
      53.2337  1.21859e+07
      53.0908  1.26919e+07
      52.9478  1.32189e+07
      52.8048  1.37676e+07
      52.6619   1.4339e+07
      52.5189   1.4934e+07
       52.376  1.55535e+07
       52.233  1.61986e+07
      52.0901  1.68703e+07
      51.9471  1.75697e+07
      51.8042   1.8298e+07
      51.6612  1.90562e+07
      51.5182  1.98458e+07
      51.3753  2.06678e+07
      51.2323  2.15237e+07
      51.0894  2.24149e+07
      50.9464  2.33428e+07
      50.8035  2.43088e+07
      50.6605  2.53146e+07
      50.5176  2.63618e+07
      50.3746  2.74521e+07
      50.2316  2.85873e+07
      50.0887  2.97691e+07
      49.9457  3.09995e+07
      49.8028  3.22804e+07
      49.6598  3.36141e+07
      49.5169  3.50024e+07
      49.3739  3.64479e+07
       49.231  3.79526e+07
       49.088  3.95192e+07
      48.9451    4.115e+07
      48.8021  4.28478e+07
      48.6591  4.46152e+07
      48.5162  4.64551e+07
      48.3732  4.83704e+07
      48.2303  5.03642e+07
      48.0873  5.24398e+07
      47.9444  5.46004e+07
      47.8014  5.68496e+07
      47.6585  5.91908e+07
      47.5155  6.16279e+07
      47.3725  6.41648e+07
      47.2296  6.68054e+07
      47.0866  6.95542e+07
      46.9437  7.24154e+07
      46.8007  7.53935e+07
      46.6578  7.84935e+07
      46.5148  8.17201e+07
      46.3719  8.50787e+07
      46.2289  8.85744e+07
      46.0859  9.22129e+07
       45.943      9.6e+07
         45.8  9.99417e+07
      45.6571  1.04044e+08
      45.5141  1.08314e+08
      45.3712  1.12758e+08
      45.2282  1.17384e+08
      45.0853  1.22198e+08
      44.9423  1.27208e+08
      44.7993  1.32423e+08
      44.6564   1.3785e+08
      44.5134  1.43498e+08
      44.3705  1.49376e+08
      44.2275  1.55493e+08
      44.0846  1.61859e+08
      43.9416  1.68485e+08
      43.7987   1.7538e+08
      43.6557  1.82555e+08
      43.5127  1.90022e+08
      43.3698  1.97793e+08
      43.2268  2.05879e+08
      43.0839  2.14294e+08
      42.9409  2.23051e+08
       42.798  2.32163e+08
       42.655  2.41646e+08
      42.5121  2.51513e+08
      42.3691  2.61781e+08
      42.2262  2.72465e+08
      42.0832  2.83582e+08
      41.9402  2.95151e+08
      41.7973  3.07188e+08
      41.6543  3.19713e+08
      41.5114  3.32745e+08
      41.3684  3.46306e+08
      41.2255  3.60415e+08
      41.0825  3.75096e+08
      40.9396   3.9037e+08
      40.7966  4.06263e+08
      40.6536  4.22799e+08
      40.5107  4.40003e+08
      40.3677  4.57903e+08
      40.2248  4.76526e+08
      40.0818  4.95902e+08
      39.9389   5.1606e+08
      39.7959  5.37033e+08
       39.653  5.58852e+08
        39.51  5.81552e+08
       39.367  6.05168e+08
      39.2241  6.29737e+08
      39.0811  6.55296e+08
      38.9382  6.81886e+08
      38.7952  7.09548e+08
      38.6523  7.38325e+08
      38.5093   7.6826e+08
      38.3664  7.99402e+08
      38.2234  8.31797e+08
      38.0804  8.65496e+08
      37.9375  9.00552e+08
      37.7945  9.37017e+08
      37.6516  9.74949e+08
      37.5086  1.01441e+09
      37.3657  1.05545e+09
      37.2227  1.09814e+09
      37.0798  1.14255e+09
      36.9368  1.18874e+09
      36.7938  1.23679e+09
      36.6509  1.28676e+09
      36.5079  1.33874e+09
       36.365  1.39281e+09
       36.222  1.44904e+09
      36.0791  1.50753e+09
      35.9361  1.56836e+09
      35.7932  1.63163e+09
      35.6502  1.69743e+09
      35.5072  1.76587e+09
      35.3643  1.83705e+09
      35.2213  1.91108e+09
      35.0784  1.98807e+09
      34.9354  2.06814e+09
      34.7925  2.15141e+09
      34.6495  2.23801e+09
      34.5066  2.32808e+09
      34.3636  2.42174e+09
      34.2207  2.51914e+09
      34.0777  2.62043e+09
      33.9347  2.72576e+09
      33.7918   2.8353e+09
      33.6488  2.94921e+09
      33.5059  3.06766e+09
      33.3629  3.19083e+09
        33.22  3.31891e+09
       33.077   3.4521e+09
      32.9341  3.59059e+09
      32.7911   3.7346e+09
      32.6481  3.88434e+09
      32.5052  4.04004e+09
      32.3622  4.20193e+09
      32.2193  4.37027e+09
      32.0763  4.54529e+09
      31.9334  4.72728e+09
      31.7904  4.91649e+09
      31.6475  5.11323e+09
      31.5045  5.31777e+09
      31.3615  5.53044e+09
      31.2186  5.75155e+09
      31.0756  5.98143e+09
      30.9327  6.22043e+09
      30.7897   6.4689e+09
      30.6468  6.72723e+09
      30.5038  6.99579e+09
      30.3609  7.27499e+09
      30.2179  7.56525e+09
      30.0749    7.867e+09
       29.932  8.18069e+09
       29.789  8.50679e+09
      29.6461  8.84579e+09
      29.5031   9.1982e+09
      29.3602  9.56453e+09
      29.2172  9.94534e+09
      29.0743  1.03412e+10
      28.9313  1.07527e+10
      28.7883  1.11804e+10
      28.6454   1.1625e+10
      28.5024  1.20872e+10
      28.3595  1.25675e+10
      28.2165  1.30668e+10
      28.0736  1.35858e+10
      27.9306  1.41253e+10
      27.7877   1.4686e+10
      27.6447  1.52687e+10
      27.5017  1.58744e+10
      27.3588   1.6504e+10
      27.2158  1.71583e+10
      27.0729  1.78383e+10
      26.9299   1.8545e+10
       26.787  1.92796e+10
       26.644   2.0043e+10
      26.5011  2.08363e+10
      26.3581  2.16608e+10
      26.2152  2.25177e+10
      26.0722  2.34081e+10
      25.9292  2.43335e+10
      25.7863  2.52952e+10
      25.6433  2.62946e+10
      25.5004  2.73331e+10
      25.3574  2.84123e+10
      25.2145  2.95337e+10
      25.0715   3.0699e+10
      24.9286  3.19099e+10
      24.7856  3.31682e+10
      24.6426  3.44756e+10
      24.4997  3.58342e+10
      24.3567  3.72458e+10
      24.2138  3.87126e+10
      24.0708  4.02366e+10
      23.9279  4.18201e+10
      23.7849  4.34654e+10
       23.642  4.51748e+10
       23.499  4.69509e+10
       23.356  4.87963e+10
      23.2131  5.07135e+10
      23.0701  5.27053e+10
      22.9272  5.47747e+10
      22.7842  5.69247e+10
      22.6413  5.91583e+10
      22.4983  6.14787e+10
      22.3554  6.38894e+10
      22.2124  6.63937e+10
      22.0694  6.89954e+10
      21.9265   7.1698e+10
      21.7835  7.45056e+10
      21.6406  7.74221e+10
      21.4976  8.04517e+10
      21.3547  8.35988e+10
      21.2117  8.68679e+10
      21.0688  9.02637e+10
      20.9258   9.3791e+10
