Temperature = 1654.03K
THERMAL DISTRIBUTIONS:
  E, kcal/mol           W1
      144.965     0.105595
      144.822     0.109574
      144.679     0.113703
      144.536     0.117987
      144.393     0.122432
      144.251     0.127045
      144.108      0.13183
      143.965     0.136795
      143.822     0.141947
      143.679     0.147292
      143.536     0.152838
      143.393     0.158593
       143.25     0.164563
      143.107     0.170758
      142.964     0.177185
      142.821     0.183853
      142.678     0.190771
      142.535     0.197949
      142.392     0.205397
      142.249     0.213124
      142.106     0.221141
      141.963     0.229458
       141.82     0.238088
      141.677     0.247041
      141.534      0.25633
      141.391     0.265967
      141.248     0.275966
      141.106     0.286339
      140.963     0.297101
       140.82     0.308267
      140.677     0.319851
      140.534     0.331869
      140.391     0.344338
      140.248     0.357273
      140.105     0.370694
      139.962     0.384616
      139.819     0.399061
      139.676     0.414046
      139.533     0.429593
       139.39     0.445721
      139.247     0.462453
      139.104     0.479812
      138.961     0.497821
      138.818     0.516503
      138.675     0.535885
      138.532     0.555991
      138.389      0.57685
      138.246      0.59849
      138.103     0.620939
       137.96     0.644227
      137.818     0.668387
      137.675     0.693449
      137.532     0.719449
      137.389     0.746421
      137.246     0.774401
      137.103     0.803428
       136.96     0.833538
      136.817     0.864775
      136.674     0.897178
      136.531     0.930792
      136.388     0.965662
      136.245      1.00183
      136.102      1.03936
      135.959      1.07828
      135.816      1.11866
      135.673      1.16055
       135.53      1.20399
      135.387      1.24907
      135.244      1.29582
      135.101      1.34432
      134.958      1.39463
      134.815      1.44681
      134.673      1.50094
       134.53       1.5571
      134.387      1.61534
      134.244      1.67576
      134.101      1.73843
      133.958      1.80344
      133.815      1.87088
      133.672      1.94082
      133.529      2.01338
      133.386      2.08863
      133.243       2.1667
        133.1      2.24767
      132.957      2.33166
      132.814      2.41877
      132.671      2.50914
      132.528      2.60287
      132.385      2.70009
      132.242      2.80092
      132.099      2.90552
      131.956      3.01401
      131.813      3.12653
       131.67      3.24325
      131.527      3.36431
      131.385      3.48987
      131.242      3.62011
      131.099      3.75519
      130.956       3.8953
      130.813      4.04061
       130.67      4.19134
      130.527      4.34767
      130.384      4.50981
      130.241      4.67797
      130.098       4.8524
      129.955       5.0333
      129.812      5.22093
      129.669      5.41553
      129.526      5.61736
      129.383      5.82669
       129.24      6.04379
      129.097      6.26896
      128.954       6.5025
      128.811       6.7447
      128.668       6.9959
      128.525      7.25643
      128.382      7.52663
       128.24      7.80685
      128.097      8.09748
      127.954       8.3989
      127.811      8.71149
      127.668      9.03569
      127.525      9.37191
      127.382       9.7206
      127.239      10.0822
      127.096      10.4573
      126.953      10.8462
       126.81      11.2496
      126.667      11.6679
      126.524      12.1017
      126.381      12.5516
      126.238      13.0182
      126.095      13.5021
      125.952      14.0038
      125.809      14.5242
      125.666      15.0639
      125.523      15.6235
       125.38      16.2039
      125.237      16.8057
      125.095      17.4299
      124.952      18.0771
      124.809      18.7483
      124.666      19.4443
      124.523      20.1661
       124.38      20.9146
      124.237      21.6908
      124.094      22.4957
      123.951      23.3304
      123.808      24.1959
      123.665      25.0935
      123.522      26.0242
      123.379      26.9893
      123.236      27.9902
      123.093       29.028
       122.95      30.1041
      122.807        31.22
      122.664      32.3772
      122.521      33.5771
      122.378      34.8213
      122.235      36.1115
      122.092      37.4493
      121.949      38.8365
      121.807      40.2749
      121.664      41.7665
      121.521       43.313
      121.378      44.9167
      121.235      46.5795
      121.092      48.3037
      120.949      50.0915
      120.806      51.9452
      120.663      53.8673
       120.52      55.8603
      120.377      57.9268
      120.234      60.0695
      120.091      62.2911
      119.948      64.5947
      119.805      66.9831
      119.662      69.4595
      119.519      72.0272
      119.376      74.6895
      119.233      77.4499
       119.09      80.3119
      118.947      83.2793
      118.804       86.356
      118.662      89.5459
      118.519      92.8533
      118.376      96.2824
      118.233      99.8377
       118.09      103.524
      117.947      107.346
      117.804      111.308
      117.661      115.416
      117.518      119.675
      117.375      124.091
      117.232      128.669
      117.089      133.416
      116.946      138.337
      116.803      143.439
       116.66      148.728
      116.517      154.212
      116.374      159.897
      116.231      165.791
      116.088      171.902
      115.945      178.237
      115.802      184.805
      115.659      191.613
      115.516      198.672
      115.374       205.99
      115.231      213.576
      115.088      221.441
      114.945      229.595
      114.802      238.047
      114.659       246.81
      114.516      255.894
      114.373      265.311
       114.23      275.074
      114.087      285.194
      113.944      295.685
      113.801      306.561
      113.658      317.836
      113.515      329.524
      113.372       341.64
      113.229      354.199
      113.086      367.219
      112.943      380.716
        112.8      394.707
      112.657       409.21
      112.514      424.244
      112.371      439.829
      112.229      455.983
      112.086      472.729
      111.943      490.088
        111.8      508.082
      111.657      526.734
      111.514      546.068
      111.371      566.109
      111.228      586.883
      111.085      608.417
      110.942      630.738
      110.799      653.874
      110.656      677.856
      110.513      702.714
       110.37      728.481
      110.227      755.188
      110.084      782.872
      109.941      811.566
      109.798      841.308
      109.655      872.135
      109.512      904.088
      109.369      937.208
      109.226      971.536
      109.084      1007.12
      108.941      1043.99
      108.798      1082.22
      108.655      1121.84
      108.512       1162.9
      108.369      1205.46
      108.226      1249.57
      108.083      1295.29
       107.94      1342.68
      107.797      1391.79
      107.654      1442.69
      107.511      1495.45
      107.368      1550.13
      107.225       1606.8
      107.082      1665.53
      106.939       1726.4
      106.796      1789.49
      106.653      1854.88
       106.51      1922.64
      106.367      1992.87
      106.224      2065.66
      106.081      2141.09
      105.938      2219.27
      105.796      2300.29
      105.653      2384.26
       105.51      2471.28
      105.367      2561.46
      105.224      2654.92
      105.081      2751.78
      104.938      2852.16
      104.795      2956.19
      104.652      3063.99
      104.509      3175.71
      104.366      3291.49
      104.223      3411.47
       104.08       3535.8
      103.937      3664.65
      103.794      3798.18
      103.651      3936.55
      103.508      4079.94
      103.365      4228.54
      103.222      4382.52
      103.079      4542.09
      102.936      4707.45
      102.793       4878.8
      102.651      5056.36
      102.508      5240.36
      102.365      5431.03
      102.222       5628.6
      102.079      5833.33
      101.936      6045.48
      101.793      6265.32
       101.65      6493.11
      101.507      6729.16
      101.364      6973.74
      101.221      7227.18
      101.078       7489.8
      100.935      7761.91
      100.792      8043.88
      100.649      8336.04
      100.506      8638.77
      100.363      8952.44
       100.22      9277.46
      100.077      9614.23
      99.9344      9963.17
      99.7914      10324.7
      99.6485      10699.3
      99.5055      11087.5
      99.3625      11489.7
      99.2196      11906.4
      99.0766      12338.1
      98.9337      12785.5
      98.7907      13248.9
      98.6478      13729.2
      98.5048      14226.7
      98.3619      14742.2
      98.2189      15276.3
      98.0759      15829.7
       97.933        16403
        97.79        16997
      97.6471      17612.5
      97.5041      18250.1
      97.3612      18910.7
      97.2182      19595.1
      97.0753      20304.1
      96.9323      21038.7
      96.7893      21799.8
      96.6464      22588.3
      96.5034      23405.2
      96.3605      24251.5
      96.2175      25128.2
      96.0746      26036.5
      95.9316      26977.5
      95.7887      27952.4
      95.6457      28962.3
      95.5027      30008.6
      95.3598      31092.5
      95.2168      32215.4
      95.0739      33378.6
      94.9309      34583.7
       94.788        35832
       94.645      37125.2
      94.5021      38464.9
      94.3591      39852.7
      94.2162      41290.4
      94.0732      42779.7
      93.9302      44322.5
      93.7873      45920.6
      93.6443      47576.1
      93.5014      49291.1
      93.3584      51067.5
      93.2155      52907.8
      93.0725        54814
      92.9296      56788.5
      92.7866      58833.9
      92.6436      60952.6
      92.5007      63147.3
      92.3577      65420.6
      92.2148      67775.4
      92.0718      70214.6
      91.9289      72741.1
      91.7859      75358.1
       91.643      78068.9
         91.5      80876.7
       91.357        83785
      91.2141      86797.4
      91.0711      89917.6
      90.9282      93149.5
      90.7852        96497
      90.6423      99964.2
      90.4993       103555
      90.3564       107275
      90.2134       111128
      90.0704       115118
      89.9275       119251
      89.7845       123531
      89.6416       127965
      89.4986       132557
      89.3557       137313
      89.2127       142238
      89.0698       147340
      88.9268       152623
      88.7838       158096
      88.6409       163763
      88.4979       169633
       88.355       175712
       88.212       182007
      88.0691       188528
      87.9261       195280
      87.7832       202274
      87.6402       209517
      87.4972       217017
      87.3543       224785
      87.2113       232830
      87.0684       241161
      86.9254       249789
      86.7825       258724
      86.6395       267977
      86.4966       277559
      86.3536       287482
      86.2107       297758
      86.0677       308400
      85.9247       319420
      85.7818       330832
      85.6388       342650
      85.4959       354888
      85.3529       367561
        85.21       380684
       85.067       394273
      84.9241       408344
      84.7811       422916
      84.6381       438005
      84.4952       453629
      84.3522       469808
      84.2093       486561
      84.0663       503908
      83.9234       521871
      83.7804       540471
      83.6375       559730
      83.4945       579672
      83.3515       600321
      83.2086       621702
      83.0656       643841
      82.9227       666763
      82.7797       690498
      82.6368       715073
      82.4938       740518
      82.3509       766864
      82.2079       794142
      82.0649       822386
       81.922       851629
       81.779       881906
      81.6361       913254
      81.4931       945711
      81.3502       979315
      81.2072  1.01411e+06
      81.0643  1.05013e+06
      80.9213  1.08742e+06
      80.7783  1.12603e+06
      80.6354  1.16601e+06
      80.4924  1.20739e+06
      80.3495  1.25024e+06
      80.2065   1.2946e+06
      80.0636  1.34053e+06
      79.9206  1.38808e+06
      79.7777   1.4373e+06
      79.6347  1.48826e+06
      79.4918  1.54102e+06
      79.3488  1.59563e+06
      79.2058  1.65218e+06
      79.0629  1.71071e+06
      78.9199  1.77131e+06
       78.777  1.83404e+06
       78.634  1.89899e+06
      78.4911  1.96622e+06
      78.3481  2.03581e+06
      78.2052  2.10786e+06
      78.0622  2.18244e+06
      77.9192  2.25965e+06
      77.7763  2.33957e+06
      77.6333  2.42231e+06
      77.4904  2.50795e+06
      77.3474  2.59661e+06
      77.2045  2.68838e+06
      77.0615  2.78338e+06
      76.9186  2.88172e+06
      76.7756  2.98351e+06
      76.6326  3.08887e+06
      76.4897  3.19794e+06
      76.3467  3.31084e+06
      76.2038   3.4277e+06
      76.0608  3.54866e+06
      75.9179  3.67387e+06
      75.7749  3.80347e+06
       75.632  3.93761e+06
       75.489  4.07646e+06
       75.346  4.22018e+06
      75.2031  4.36893e+06
      75.0601   4.5229e+06
      74.9172  4.68227e+06
      74.7742  4.84721e+06
      74.6313  5.01794e+06
      74.4883  5.19464e+06
      74.3454  5.37753e+06
      74.2024  5.56682e+06
      74.0594  5.76274e+06
      73.9165  5.96551e+06
      73.7735  6.17538e+06
      73.6306  6.39258e+06
      73.4876  6.61739e+06
      73.3447  6.85005e+06
      73.2017  7.09084e+06
      73.0588  7.34005e+06
      72.9158  7.59796e+06
      72.7728  7.86489e+06
      72.6299  8.14114e+06
      72.4869  8.42703e+06
       72.344   8.7229e+06
       72.201   9.0291e+06
      72.0581  9.34599e+06
      71.9151  9.67393e+06
      71.7722  1.00133e+07
      71.6292  1.03645e+07
      71.4863   1.0728e+07
      71.3433  1.11041e+07
      71.2003  1.14933e+07
      71.0574  1.18961e+07
      70.9144   1.2313e+07
      70.7715  1.27443e+07
      70.6285  1.31907e+07
      70.4856  1.36526e+07
      70.3426  1.41306e+07
      70.1997  1.46252e+07
      70.0567   1.5137e+07
      69.9137  1.56666e+07
      69.7708  1.62147e+07
      69.6278  1.67818e+07
      69.4849  1.73686e+07
      69.3419  1.79758e+07
       69.199  1.86041e+07
       69.056  1.92542e+07
      68.9131  1.99269e+07
      68.7701   2.0623e+07
      68.6271  2.13432e+07
      68.4842  2.20884e+07
      68.3412  2.28595e+07
      68.1983  2.36574e+07
      68.0553  2.44829e+07
      67.9124   2.5337e+07
      67.7694  2.62207e+07
      67.6265  2.71351e+07
      67.4835  2.80811e+07
      67.3405  2.90599e+07
      67.1976  3.00727e+07
      67.0546  3.11205e+07
      66.9117  3.22045e+07
      66.7687  3.33261e+07
      66.6258  3.44865e+07
      66.4828  3.56871e+07
      66.3399  3.69292e+07
      66.1969  3.82142e+07
      66.0539  3.95437e+07
       65.911  4.09191e+07
       65.768   4.2342e+07
      65.6251  4.38141e+07
      65.4821  4.53371e+07
      65.3392  4.69127e+07
      65.1962  4.85426e+07
      65.0533  5.02288e+07
      64.9103  5.19732e+07
      64.7673  5.37778e+07
      64.6244  5.56446e+07
      64.4814  5.75758e+07
      64.3385  5.95736e+07
      64.1955  6.16403e+07
      64.0526  6.37782e+07
      63.9096  6.59897e+07
      63.7667  6.82774e+07
      63.6237  7.06439e+07
      63.4808  7.30919e+07
      63.3378  7.56241e+07
      63.1948  7.82434e+07
      63.0519  8.09529e+07
      62.9089  8.37556e+07
       62.766  8.66547e+07
       62.623  8.96534e+07
      62.4801  9.27552e+07
      62.3371  9.59636e+07
      62.1942  9.92822e+07
      62.0512  1.02715e+08
      61.9082  1.06265e+08
      61.7653  1.09938e+08
      61.6223  1.13736e+08
      61.4794  1.17665e+08
      61.3364  1.21728e+08
      61.1935  1.25931e+08
      61.0505  1.30278e+08
      60.9076  1.34774e+08
      60.7646  1.39424e+08
      60.6216  1.44233e+08
      60.4787  1.49207e+08
      60.3357  1.54352e+08
      60.1928  1.59673e+08
      60.0498  1.65175e+08
      59.9069  1.70866e+08
      59.7639  1.76752e+08
       59.621  1.82839e+08
       59.478  1.89134e+08
       59.335  1.95645e+08
      59.1921  2.02378e+08
      59.0491   2.0934e+08
      58.9062  2.16541e+08
      58.7632  2.23988e+08
      58.6203  2.31689e+08
      58.4773  2.39653e+08
      58.3344  2.47889e+08
      58.1914  2.56405e+08
      58.0484  2.65212e+08
      57.9055   2.7432e+08
      57.7625  2.83738e+08
      57.6196  2.93477e+08
      57.4766  3.03547e+08
      57.3337  3.13961e+08
      57.1907   3.2473e+08
      57.0478  3.35865e+08
      56.9048  3.47379e+08
      56.7619  3.59285e+08
      56.6189  3.71596e+08
      56.4759  3.84325e+08
       56.333  3.97488e+08
        56.19  4.11098e+08
      56.0471  4.25171e+08
      55.9041  4.39721e+08
      55.7612  4.54766e+08
      55.6182  4.70322e+08
      55.4753  4.86406e+08
      55.3323  5.03036e+08
      55.1893   5.2023e+08
      55.0464  5.38007e+08
      54.9034  5.56388e+08
      54.7605  5.75391e+08
      54.6175  5.95039e+08
      54.4746  6.15352e+08
      54.3316  6.36354e+08
      54.1887  6.58067e+08
      54.0457  6.80515e+08
      53.9027  7.03723e+08
      53.7598  7.27716e+08
      53.6168  7.52521e+08
      53.4739  7.78165e+08
      53.3309  8.04676e+08
       53.188  8.32083e+08
       53.045  8.60417e+08
      52.9021  8.89707e+08
      52.7591  9.19988e+08
      52.6161   9.5129e+08
      52.4732  9.83649e+08
      52.3302   1.0171e+09
      52.1873  1.05168e+09
      52.0443  1.08743e+09
      51.9014  1.12438e+09
      51.7584  1.16258e+09
      51.6155  1.20206e+09
      51.4725  1.24288e+09
      51.3295  1.28507e+09
      51.1866  1.32868e+09
      51.0436  1.37375e+09
      50.9007  1.42035e+09
      50.7577  1.46851e+09
      50.6148   1.5183e+09
      50.4718  1.56975e+09
      50.3289  1.62294e+09
      50.1859  1.67792e+09
      50.0429  1.73474e+09
         49.9  1.79347e+09
       49.757  1.85417e+09
      49.6141  1.91691e+09
      49.4711  1.98175e+09
      49.3282  2.04877e+09
      49.1852  2.11804e+09
      49.0423  2.18963e+09
      48.8993  2.26362e+09
      48.7564  2.34009e+09
      48.6134  2.41913e+09
      48.4704   2.5008e+09
      48.3275  2.58522e+09
      48.1845  2.67246e+09
      48.0416  2.76261e+09
      47.8986  2.85579e+09
      47.7557  2.95208e+09
      47.6127  3.05158e+09
      47.4698  3.15442e+09
      47.3268  3.26069e+09
      47.1838  3.37051e+09
      47.0409  3.48399e+09
      46.8979  3.60127e+09
       46.755  3.72246e+09
       46.612  3.84769e+09
      46.4691   3.9771e+09
      46.3261  4.11082e+09
      46.1832    4.249e+09
      46.0402  4.39178e+09
      45.8972  4.53932e+09
      45.7543  4.69178e+09
      45.6113  4.84931e+09
      45.4684  5.01208e+09
      45.3254  5.18027e+09
      45.1825  5.35405e+09
      45.0395  5.53361e+09
      44.8966  5.71914e+09
      44.7536  5.91083e+09
      44.6106  6.10889e+09
      44.4677  6.31353e+09
      44.3247  6.52496e+09
      44.1818  6.74341e+09
      44.0388  6.96911e+09
      43.8959  7.20229e+09
      43.7529   7.4432e+09
        43.61   7.6921e+09
       43.467  7.94925e+09
       43.324  8.21491e+09
      43.1811  8.48938e+09
      43.0381  8.77293e+09
      42.8952  9.06586e+09
      42.7522  9.36848e+09
      42.6093  9.68112e+09
      42.4663  1.00041e+10
      42.3234  1.03377e+10
      42.1804  1.06824e+10
      42.0374  1.10385e+10
      41.8945  1.14063e+10
      41.7515  1.17862e+10
      41.6086  1.21787e+10
      41.4656  1.25841e+10
      41.3227  1.30029e+10
      41.1797  1.34356e+10
      41.0368  1.38824e+10
      40.8938   1.4344e+10
      40.7509  1.48208e+10
      40.6079  1.53133e+10
      40.4649   1.5822e+10
       40.322  1.63474e+10
       40.179  1.68902e+10
      40.0361  1.74507e+10
      39.8931  1.80297e+10
      39.7502  1.86277e+10
      39.6072  1.92454e+10
